Time,Rectus Femoris right,Rectus Femoris left,Hamstrings right,Hamstrings left,TibilaisÂ Anterior right,TibilaisÂ Anterior left,Gastrocnemius right,Gastrocnemius left
0.0,0.009853796807440774,-0.00907256970015787,-0.0131209309964089,-0.016527503341010007,-0.010589390100195984,-0.01696436074813504,0.06094086074813504,0.004005889403629216
0.0004655,0.011116199497056332,-0.010501243621194402,-0.01738232910378399,-0.014985916278216865,-0.0081467796982338,-0.01627380118889962,0.17547423507115206,0.01223161609520458
0.000931,0.010608049448015642,-0.010301342654924021,-0.01985128849238463,-0.02446629131053408,-0.005037003000343017,-0.017934004157135742,0.17150229131053407,-0.02127490887165949
0.0013966,0.011413609974199906,-0.010911320206400746,-0.02242750225688805,-0.03667767796687382,-0.0037349975709502557,-0.015274019948399813,0.07427437519350069,-0.023036667390349604
0.0018621,0.012818911437263046,-0.01185012998478967,-0.02149917001913037,-0.04983199355824188,-0.0069201685728771745,-0.011245849974649452,0.0013954999960799574,0.0014721871164837567
0.0023276,0.01261837033238474,-0.012123176052649318,-0.020877332179096812,-0.04644226857573684,-0.013384317196505775,-0.008039130422448918,-0.025430520934962012,0.005432357353422182
0.0027931,0.010277326481883562,-0.012195204538943811,-0.019946600378606818,-0.03480800693208355,-0.02155908575179176,-0.008458566586032891,-0.045206680208298655,-0.00918776204708908
0.0032586,0.010529976465889096,-0.011838447068221807,-0.022769135341109036,-0.026748144784506035,-0.026239217670554517,-0.016666490556603002,-0.0585126080673868,-0.016795194136443613
0.0037241,0.01076333210599145,-0.012488797796151762,-0.026069442300734408,-0.02123491413318727,-0.026995729645724546,-0.024265836371275353,-0.05779410972549079,-0.018261017389545928
0.0041897,0.009283238245214813,-0.0129105700626709,-0.027778079623974602,-0.02000554137875979,-0.022254754433085607,-0.0254319652478073,-0.041173347592568195,-0.01886014200546878
0.0046552,0.010746638943768492,-0.011901335411425292,-0.02594626708228506,-0.02177675216175182,-0.017366312635045213,-0.01911938449652865,-0.022370788611809963,-0.021957368993057298
0.0051207,0.013205231067070432,-0.010606776408467892,-0.020419537865859136,-0.024631841630457587,-0.019105752193844746,-0.009089658450807345,-0.015080614274327027,-0.022640236077850956
0.0055862,0.011752492013612966,-0.009860401673666768,-0.01734352015694099,-0.02413666680440462,-0.016726975627625037,-0.005359141563929218,-0.024118348744749926,-0.025241408399600894
0.0060517,0.009056538031493259,-0.010671067819505704,-0.015849132180494295,-0.02588409654549464,-0.008355434440764607,-0.003951474864739714,-0.042999754386243344,-0.03103645784476046
0.0065172,0.009399684732347887,-0.008198756195023402,-0.018257099907989745,-0.029812675219906392,0.0026463839447325756,-0.008676597122394691,-0.06036800371122575,-0.033376425659719176
0.0069828,0.007889082446375973,-0.0058376453448876695,-0.018855007995667125,-0.02493539068977534,0.007067901314557537,-0.010052146659445206,-0.07692916303792204,-0.032171192004332876
0.0074483,0.00665480561801379,-0.0043096705226414326,-0.022758886707311254,-0.013874764738679282,0.004692686873259614,-0.009808524860613045,-0.1039861853442949,-0.028588729477358566
0.0079138,0.005558993714106786,-0.005143318857679642,-0.02676378171661178,-0.004776017709096796,-0.0036363819608378443,-0.008620281142320357,-0.1263337459683528,-0.028386493714106786
0.0083793,0.00669176848112638,-0.006932452721689569,-0.029329236962252758,-0.00361981575943681,-0.014138785225657787,-0.008272107879718405,-0.1434396417831752,-0.03153661332309755
0.0088448,0.008913028749608311,-0.00888405863593634,-0.028250619545312113,-0.01125098738554465,-0.017385585112105216,-0.009480489658984084,-0.14751724061280203,-0.035114557499216624
0.0093103,0.011169486449411353,-0.008331348027450752,-0.026554539385814282,-0.023277199787585797,-0.013111090288302749,-0.010280773005029808,-0.1202259847341182,-0.0371250344768621
0.0097759,0.013380965740973855,-0.007867188532422827,-0.025102504994614746,-0.03214701431650829,-0.01137291994251785,-0.010738793598890259,-0.07159468895589927,-0.04105699715106888
0.0102414,0.01541742029848424,-0.007642655515726708,-0.02437388007462106,-0.027550453277094905,-0.013582120671589542,-0.011156455142621407,-0.04815376276097923,-0.04699512104469484
0.0107069,0.016415510940202868,-0.00833649970281411,-0.02474099635326571,-0.02017624592019197,-0.015923019449249544,-0.01048509240934553,-0.06006835229526834,-0.05052204313960516
0.0111724,0.018130173288829,-0.008283411984178571,-0.024938453928803568,-0.012689152063285717,-0.014585728094928575,-0.010052594489670993,-0.0875327801582143,-0.04710061927380088
0.0116379,0.019065101984708503,-0.008742890734281932,-0.024389136421906023,-0.011037791054765057,-0.010603981468563865,-0.009535983101884365,-0.09401715495334216,-0.035322053671409656
0.0121034,0.02032813914477302,-0.009975435385291834,-0.02303104359045386,-0.010601498120259407,-0.011644255216005208,-0.008894978806199764,-0.042212215554578464,-0.013641604614578513
0.012569,0.020950600519454608,-0.009536809608212673,-0.01799040522068333,-0.008499278078357465,-0.01362646982275339,-0.0024871890391787326,0.022385175043436716,-0.009597678408061023
0.0130345,0.01696613927244667,-0.008748776188510617,-0.014931885845747603,-0.007921259528723456,-0.02402019666053743,-0.00085760845840711,0.0357830359329841,-0.02325738809425531
0.0135,0.01612741408628904,-0.009773304224079255,-0.013057726077865246,-0.010652377465552447,-0.038537798585948725,-0.003402080293654995,-0.010164460569235423,-0.042202770413370644
0.0139655,0.016936070345455606,-0.01020534069091121,-0.012335541363609863,-0.015285988046365235,-0.04772100431081477,-0.0059895937635865435,-0.06863578914719325,-0.06485842898184574
0.014431,0.01860563285609833,-0.009206032856098332,-0.01454953858291836,-0.015588387114654937,-0.049852259741710356,-0.011759242878033382,-0.08529144042883909,-0.07486379451684624
0.0148966,0.018343746460763387,-0.00894414646076339,-0.017430288931602717,-0.008517454440611517,-0.04814995916601666,-0.01699697078473221,-0.0666975843720914,-0.06975704881383146
0.0153621,0.016709610194400138,-0.009530395922239945,-0.020180285727839805,0.003091386492139182,-0.03958994749940056,-0.020814681650079752,-0.05598364689424063,-0.05724052166338093
0.0158276,0.016073612488551162,-0.009695324965876903,-0.019862242092062818,0.008592072037699095,-0.020501528167933134,-0.018495325079918443,-0.10437016883564286,-0.04599854386976596
0.0162931,0.015113160503805255,-0.008494417673183055,-0.020441553778601344,0.0071730264733012835,0.0002915986111912581,-0.013646572767646541,-0.14927507200859436,-0.031956810188926967
0.0167586,0.015283861375110066,-0.009549736693565906,-0.01941515824472723,0.00391336457871942,0.016559184418236287,-0.013136392245731404,-0.1086144785220652,-0.00988397389971747
0.0172241,0.012818415753867966,-0.0109102,-0.02084939788337652,0.0005726478700918825,0.021545132694547334,-0.013881265540317843,0.017917636149205392,-0.0032328408361218712
0.0176897,0.010497611420968743,-0.0109102,-0.022791643738218292,-0.0004708009381936371,0.019500043742236007,-0.010187161499151547,0.14304397543402314,-0.015039600312731213
0.0181552,0.012553221621387292,-0.009853327332588103,-0.027472716026828298,-0.002357797366123474,0.016465657957521862,-0.010837657625858676,0.20035802479709114,-0.02794291614347011
0.0186207,0.010402991295730695,-0.009104682493701109,-0.027251880709343267,0.0009811479056223615,0.02029867609606896,-0.010887954401014793,0.16189495102781967,-0.03266588142714315
0.0190862,0.010210766133428573,-0.008926766613342857,-0.028181900319942856,0.0012386662601634084,0.01476797183568513,-0.0153819831467,0.07793675594221369,-0.034344834026542856
0.0195517,0.011491891835481383,-0.007822324493555854,-0.027883204898711173,0.0034756016329037234,0.004589786936770211,-0.022855024906767274,0.009348927779701864,-0.0409581277593633
0.0200172,0.013334259868633323,-0.008332468899830288,-0.029118801674872713,0.005437872906409106,-0.004988952512309073,-0.024015883612478785,-0.009493240131366678,-0.04198926722495757
0.0204828,0.016135311282736896,-0.006490936668894909,-0.03173126051042086,0.005404552048368196,-0.010140114103421118,-0.024148488717263106,0.0019449858965788812,-0.033844146406999745
0.0209483,0.018200367903114432,-0.004579559685827574,-0.03589565988218534,0.005826172214700227,-0.01141361272523042,-0.022132494706625372,0.004772815452784884,-0.044695646960597156
0.0214138,0.019816114702271462,-0.0032957588336399086,-0.03610732940454292,0.0028534,-0.01147894707182274,-0.0219883,-0.02353230936318247,-0.0649577
0.0218793,0.01915847495820851,-0.0033813936911209464,-0.03553593135067054,0.0024300175978496166,-0.01058296444341009,-0.0229953,-0.06502691604950533,-0.07031196156627827
0.0223448,0.01765456579061642,-0.005484714947295162,-0.03501505421004019,0.0037257554776704426,-0.012239910842008038,-0.023348707265782975,-0.05449864336803215,-0.0669718
0.0228103,0.016929129398416953,-0.008186093631570355,-0.03326767524640875,0.00334245416984982,-0.016722656861247145,-0.021154031122020894,-0.0027383284306235715,-0.06515906667688466
0.0232759,0.019454637041457095,-0.008002852781092824,-0.02957020240291758,0.0002889566400067821,-0.01635840272142202,-0.020271815739635726,0.044973361311975796,-0.05653441959854969
0.0237414,0.020331166042663315,-0.008896,-0.028206257862337127,-0.0021729473225627475,-0.01469126016547748,-0.017773762298643202,0.06569156460178355,-0.033235827161582424
0.0242069,0.018301011668487403,-0.010660861906224142,-0.025264851123046668,-0.005583246209749837,-0.01381384573427636,-0.015210612559434185,0.05163763365031565,-0.0015656695467246404
0.0246724,0.020432103235309192,-0.011572582149345619,-0.02623374540723634,-0.003389022433620725,-0.014807278914036427,-0.013121381628945362,0.004649746754893491,-0.0033368362217090206
0.0251379,0.02329162007261154,-0.012246616152316116,-0.025842416152316118,-0.006275138379668769,-0.018450435211617846,-0.014164423941910769,-0.03425493591286616,-0.041343344715770614
0.0256034,0.02205358656345094,-0.012550938514619527,-0.028320672566550034,-0.011506089479182281,-0.02048235513637387,-0.017851996814794716,-0.04103143268315684,-0.07520115513637388
0.026069,0.023270175186066736,-0.015427525558200202,-0.030717563523367037,-0.017564538709433773,-0.022873659431533817,-0.017273289266816507,-0.019875872579497533,-0.0699603605462993
0.0265345,0.02375009976502192,-0.014171887334842322,-0.0368881892254917,-0.014571129111614107,-0.022889938940797723,-0.017280557277903525,-0.03829453100226348,-0.02462614366742116
0.027,0.021053907422079243,-0.014552102097618454,-0.0448157,-0.007545209035500413,-0.016791390169917608,-0.019128396773157662,-0.09423356841213437,0.023025213541122014
0.0274655,0.018416310361846506,-0.015415568914460488,-0.04908562072369301,-0.003336441447386017,-0.009214234727497599,-0.022700617105227965,-0.12831201134894374,0.042106648167274434
0.027931,0.01830088392408961,-0.01617202239436182,-0.04830787438966333,-0.002510132816914553,-0.00762392971443798,-0.02464491341153103,-0.11050925010555032,0.04089587106019019
0.0283966,0.019318726617848253,-0.01644118748675743,-0.04481302969270685,-0.003029312513242573,-0.011320690883291845,-0.02466845779405058,-0.0756545920451115,0.027374569234398054
0.0288621,0.020177882878999978,-0.016011652011144385,-0.04466987963747771,-0.0034588479888556147,-0.015330086768666573,-0.024382072373666675,-0.0732203586268111,0.010191529321289155
0.0293276,0.02160420855057246,-0.01599105130343475,-0.04539031710114492,-0.002478428988550842,-0.015325731595420337,-0.021743217021957202,-0.08724840928053643,-0.0029590812805517066
0.0297931,0.024386303512608027,-0.015751161361311723,-0.04380344059433561,-0.0025255034676007256,-0.008606778924351847,-0.018920521075648154,-0.030952243798271595,-0.01273675971433643
0.0302586,0.026757931688783505,-0.013333581109560372,-0.03979439791311342,-0.0045458584439175215,-0.007626511489965398,-0.017298928757738603,0.09882132466824743,-0.012763379336961736
0.0307241,0.027235785680500734,-0.011205265328732826,-0.0346515070281284,-0.008577257514491914,-0.009897038185331374,-0.018106521374375274,0.18319743692622917,-0.013930259796201501
0.0311897,0.026987008790880087,-0.011295452230878366,-0.03574094176415842,-0.0089803406540814,-0.010396523072321225,-0.018112143954400438,0.1267810021089693,-0.014199296699680963
0.0316552,0.027004260208174834,-0.011667483496363028,-0.03657939902182183,-0.011281007762729398,-0.009042422730057563,-0.019380749510910913,0.015836314547280624,-0.01819809790556056
0.0321207,0.02379563802100824,-0.01210570371768676,-0.03680010743537352,-0.011559639083651421,-0.006201220869347502,-0.020118594964749194,-0.025913212470624326,-0.019029267014242564
0.0325862,0.02325675468968688,-0.012253,-0.036615297690146674,-0.013355261851560593,-0.0016599331432803508,-0.02288073982734838,0.02191715795515156,-0.0195206365618837
0.0330517,0.023488408635635484,-0.010520560110474579,-0.037940084222463144,-0.016762230312528728,0.0024802318062628345,-0.02545717419978317,0.11926629893304422,-0.020740888734775042
0.0335172,0.025828254773666477,-0.00948522725400916,-0.03754697267735776,-0.0146646908466972,-0.0008319602502119571,-0.02576662725400916,0.21397033146206276,-0.021611513627004583
0.0339828,0.02601303378152943,-0.008253138248881305,-0.036780403686660974,-0.011652945622203257,-0.009689065258669407,-0.025684468343749753,0.2600174663204036,-0.02066690368666098
0.0344483,0.02599842407806647,-0.008070713378816641,-0.035820362808409764,-0.00984986548797658,-0.01719367563762323,-0.02450173745688311,0.24519324198210327,-0.01985657605457997
0.0349138,0.02541261090633504,-0.007716108016918109,-0.03252972181267008,-0.00819089454683248,-0.02384375670032618,-0.02360428107674685,0.20066697549187945,-0.02034215092149231
0.0353793,0.026041156397105067,-0.006980025588420268,-0.0291852383826304,-0.007602312794210134,-0.02237311113876847,-0.02353573498710056,0.1395810239329786,-0.023609500912367347
0.0358448,0.026803003234775098,-0.00500808969388728,-0.026871166212503687,-0.007900954452693116,-0.01898898221571322,-0.022519859442059777,0.09084256335807935,-0.029084729897962427
0.0363103,0.0293736,0.0002461494048090225,-0.02694535059519098,-0.0078889,-0.020280418973196615,-0.02225044889168615,0.06560243400275828,-0.03169411897319662
0.0367759,0.029130569750536447,0.00271838319474247,-0.024176079833690967,-0.0078078899168454825,-0.01889764958422741,-0.019630682175113535,0.052139733269218336,-0.03079741008315452
0.0372414,0.026514133756937626,0.0008512350233800777,-0.02246018105847379,-0.007022338572923431,-0.014164989206144656,-0.01771789322770073,0.03611315269846383,-0.031612771639990045
0.0377069,0.024136155227827086,-0.0034775910631930614,-0.021563429848115278,-0.007977460866362059,-0.008581280607538893,-0.018744074620288192,0.016193541778547565,-0.039557983905810855
0.0381724,0.022917740261228833,-0.005295836220862785,-0.023175780522457667,-0.010708388338824575,-0.0035545529641832388,-0.01826584703581676,0.018374141107450285,-0.043011829055159795
0.0386379,0.021378708941256756,-0.0076585427149012475,-0.025166862590508238,-0.012483357285098752,-0.0003462311334884893,-0.017854557285098754,0.04175096622635551,-0.03917910131922253
0.0391034,0.020667347404013776,-0.008866870127981631,-0.025834235063990817,-0.011931864936009185,-0.0011566949146575702,-0.01993040519197245,0.05641621589580739,-0.04306811546928733
0.039569,0.020028373777923908,-0.009513126222076094,-0.026311598708393377,-0.01099161066688586,-0.008271851553875076,-0.021671151152545563,0.04192206258650114,-0.0431373
0.0400345,0.018682217221838025,-0.010580157469093115,-0.02703501493818623,-0.010958287644653833,-0.018511489329929107,-0.0216526,-0.00103821523737449,-0.02142156233558497
0.0405,0.01852598271898078,-0.011601345490082364,-0.029676388183002746,-0.012101604575068639,-0.019888528209063148,-0.019737135450991764,-0.038766618169972546,-0.009531193699450435
0.0409655,0.019570082236068074,-0.012882763003565358,-0.03197153428336693,-0.01384451955612502,-0.015565435187722836,-0.017936147048345237,-0.05289624631405984,-0.023285749914964744
0.041431,0.022020229091056314,-0.013506984130984239,-0.033693292065492125,-0.012189028589429076,-0.007780520654921197,-0.01619258413098424,-0.048469286276332214,-0.04072523223965876
0.0418966,0.023262930068334298,-0.012890361654665032,-0.03290282050111818,-0.009363190205002892,-0.005775199088876037,-0.015564620045556199,-0.04324145056945248,-0.04559590698678522
0.0423621,0.022472441302701984,-0.011779655070269311,-0.03254344130270198,-0.00842265507026931,-0.006584717394596034,-0.016182372464865345,-0.03951590651350992,-0.04353339539112916
0.0428276,0.020071466135236783,-0.00596190318857932,-0.03080868466190805,-0.00539295079714483,-0.010054230676183901,-0.018205813325734514,-0.03720222908189424,-0.02736092490382991
0.0432931,0.0206455,-0.0035726424587032768,-0.028268437150479976,-0.005385901037997891,-0.012522517158589229,-0.01863608579294614,-0.04194520606552904,-0.017860575737883844
0.0437586,0.023282928780446334,-0.0031418273173220044,-0.025535887804463326,-0.005539,-0.014481916254392147,-0.0223239,-0.049565966830180684,-0.02539406975642934
0.0442241,0.023287419769052676,-0.00559789942263169,-0.023195152909929906,-0.0066587924480352575,-0.01041052497668375,-0.021544928452209896,-0.05657541279445624,-0.027500353487298217
0.0446897,0.020101263911094427,-0.007184437588579186,-0.020923937629782504,-0.0074438609941538374,-0.0038554241142081396,-0.021024414183004537,-0.08005017096656077,-0.02299022411420814
0.0451552,0.01394950268085188,-0.009113799106382705,-0.017932601489362154,-0.009857798808510275,0.0011023002978724312,-0.02090860029787243,-0.10144890178723459,-0.021888543625323734
0.0456207,0.009310522690877985,-0.010660125769707339,-0.015355390383821103,-0.011919567692943117,0.0005868580767642206,-0.02039315807676422,-0.09835624846058533,-0.0235636924582968
0.0460862,0.005515556204458451,-0.012714894295297896,-0.01424375620445845,-0.016238324865476692,-0.006101167240224256,-0.01630226624071156,-0.06611568074393963,-0.028885684354330567
0.0465517,0.004216059578720218,-0.014918740421279782,-0.013575940421279782,-0.01827574042127978,-0.015027967118262492,-0.013837816532828952,-0.03784884725868908,-0.03517317803402768
0.0470172,0.003965110994385554,-0.015169689005614446,-0.012279152748596388,-0.01697895274859639,-0.01900622522763861,-0.008577881285090292,-0.029425682422897757,-0.038851658245789164
0.0474828,0.005192353678487204,-0.013942446321512795,-0.012599646321512795,-0.017299446321512795,-0.019421242096649947,-0.000983326023127617,-0.04191669087048754,-0.03972921716627362
0.0479483,0.00825133685364899,-0.01356906314635101,-0.01421372629270202,-0.02323593168284091,-0.01862980668835833,0.00530584719526515,-0.06326135562050454,-0.04001352455582096
0.0484138,0.009135124505804833,-0.013899308168601611,-0.013963691831398388,-0.02694090619182094,-0.020116649011609665,0.005555100710431306,-0.07228777915331738,-0.03990906732559355
0.0488793,0.008631156909287327,-0.013330956909287327,-0.013631228454643663,-0.026158313818574655,-0.022261520321619082,0.0011851073155302286,-0.07455118618142535,-0.028520161772334494
0.0493448,0.009069123774259369,-0.012201057710624356,-0.013592807576508676,-0.021656377562513707,-0.023306922793666866,-0.0067110075765086765,-0.061891227696629386,-0.009090218871296848
0.0498103,0.012045679725154345,-0.011651211958773151,-0.012522112332054622,-0.017299344192391958,-0.020020507972515436,-0.015263455807608042,-0.04281244419239196,-0.007935307972515435
0.0502759,0.0152743,-0.011158015421180084,-0.009575912418753068,-0.016193515421180086,-0.014916628855295022,-0.03214955664160687,-0.028577696846671788,-0.022732837149016593
0.0507414,0.017581290623981716,-0.01121148096581652,-0.009394847162238332,-0.016711632800836224,-0.010781014205100883,-0.05361725694624921,-0.020408995891512453,-0.03068198096581652
0.0512069,0.01827133589354696,-0.011019719660914673,-0.010999055020835698,-0.017573936038772046,-0.013193688310176383,-0.059485972077544094,-0.004856787486100273,-0.03038969173845877
0.0516724,0.019577994338781848,-0.011704201323854633,-0.010468965230311647,-0.020543620419582583,-0.02026443737493858,-0.04698079739474977,0.03422031992640585,-0.028555121743437214
0.0521379,0.02129558842930222,-0.011911972107325555,-0.008911983678023335,-0.022624969491165804,-0.025275938982331606,-0.03212848884336372,0.046315716388955784,-0.025062778926744453
0.0526034,0.022640219959341224,-0.014486612828006121,-0.007191899125317013,-0.024683898227764213,-0.02692291778427197,-0.023664045481075643,-0.0027913801749365973,-0.022401424781329254
0.053069,0.02233050710783117,-0.019019665360692987,-0.00809292462588957,-0.027991310471429703,-0.0260166,-0.020546768127698633,-0.06105436826627926,-0.016462368404859887
0.0535345,0.023392580210960308,-0.0216032173473238,-0.008651675913419803,-0.030033700820346412,-0.021719326635861985,-0.011225352558943458,-0.08674420246103923,-0.009732707843653819
0.054,0.02462403044109506,-0.021213962492113603,-0.00798127603532053,-0.029603703435283082,-0.013290265515735403,-0.002603692521547379,-0.08779336300188748,-0.010348121021659547
0.0544655,0.02592667247005141,-0.019686273013881685,-0.00953756245303628,-0.023654630256603866,-0.0006833550598971845,-0.004265293032944904,-0.059982151686632394,-0.019779276166620955
0.054931,0.023478998243547582,-0.018417782633349426,-0.009741197877768514,-0.016248086410664633,0.009070297911558079,-0.009486952966668129,0.0023031825657702926,-0.028037297911558078
0.0553966,0.02083848200641079,-0.016939825636946435,-0.01180379374643492,-0.0115816,0.00677963853496416,-0.015881594904428517,0.0709904517369904,-0.03183863582808941
0.0558621,0.021961166639371168,-0.014992866721257662,-0.01385914437165645,-0.010928288907085887,-0.011419857749345294,-0.0169211430654961,0.09911056859659993,-0.03238585554645705
0.0563276,0.02454204403131912,-0.014326771956167383,-0.018326995206249676,-0.011432041043699312,-0.03577068314990356,-0.016365028946897876,0.056462691953323305,-0.03413923000940281
0.0567931,0.024899753976282874,-0.01597849309461522,-0.021795139118332342,-0.00796164106511649,-0.05090323043180295,-0.01864911805325793,-0.037115361065158566,-0.04292670901759808
0.0572586,0.025992732478445534,-0.017873493529514634,-0.022588831759502718,-0.0002781739920398303,-0.04953895268797498,-0.01604689640528591,-0.10727788955920796,-0.05504022489877894
0.0577241,0.024818878834137616,-0.017988915766827523,-0.024222036932689907,0.006330500430277051,-0.031421221599461716,-0.010147715336550473,-0.09292858834137618,-0.06033448110171685
0.0581897,0.021367864832278805,-0.012856440142220479,-0.025383279217787373,0.004523706483260615,-0.0011450193600078499,-0.007676229040011775,-0.034629969537783446,-0.05971012690992205
0.0586552,0.02019272473455817,-0.006762586024985151,-0.024972687598334323,0.004107715685910389,0.01715441554836402,-0.010854986880432922,0.002453710110415103,-0.04547224048924174
0.0591207,0.019180141060905324,-0.0017930124265363003,-0.026304350360302653,0.013457259579021401,0.019776939265836926,-0.0148533431135812,0.0205176146703718,-0.0090771729030919
0.0595862,0.01684095384881262,0.002830932508232417,-0.028933517940644658,0.02218212671077097,0.0169676396307187,-0.01946677701177977,0.036624686357045036,0.026419293052260637
0.0600517,0.015126433075890343,0.008864476631062584,-0.028253800154465793,0.024856845193216886,0.025049466151780685,-0.029493498455342056,0.06385948479335757,0.01643565075398548
0.0605172,0.015622786034383012,0.011694784533340443,-0.027508547094842548,0.018147405197991587,0.0261167530209681,-0.03500713162818299,0.08587090754297877,-0.021875591613076624
0.0609828,0.0197339505069378,0.024307911560671833,-0.027476805426226072,0.012841573225717695,0.0171078762673445,-0.040930350201281884,0.08771594807662282,-0.05361021318585927
0.0614483,0.021905820091326425,0.02835040868363029,-0.028328433222113945,0.005482456371164387,0.006306123482708597,-0.022686187148070046,0.059870164277877176,-0.06681263566732223
0.0619138,0.021059523130967994,0.026105090836556384,-0.02936757377066369,0.000457285097906091,-0.0020010691797434548,-0.0011709483442355778,0.006921998852269941,-0.066865331729745
0.0623793,0.023176682292348587,0.018263262620328312,-0.028443022908568764,-0.0028081682204081308,-0.006847865089995341,0.002224602765645117,-0.044995710401834706,-0.0605936
0.0628448,0.02476050558134628,0.014760407458841631,-0.028506013245317964,-0.015470486754682038,-0.016920102207552995,-0.004658380132023057,-0.06499911986797695,-0.04768113785845854
0.0633103,0.025986029888058912,0.009017710354709673,-0.03002589368003682,-0.02686511811345425,-0.022816271823698074,-0.009235521263992637,-0.04927700718528488,-0.021192943966766672
0.0637759,0.02709929742857542,0.0040101783723944275,-0.030368576381249488,-0.037117503151704215,-0.022369520103928633,-0.00916256850198894,-0.026975587247227446,0.00032960199114494173
0.0642414,0.02574154336941365,0.0024032356176459883,-0.03148773717378313,-0.05047047579740129,-0.018456180543196782,-0.010753024782522087,-0.01828787173783129,-0.00382681713705653
0.0647069,0.025600508680712144,-0.0006099522560832039,-0.03572363055430284,-0.06518472726133026,-0.01356973906320465,-0.02191982292097418,-0.01629553472284858,-0.01845416215598917
0.0651724,0.024880622856218268,-0.004446321063309427,-0.039889311779222954,-0.06950916274025902,-0.011097662740259017,-0.025661034635441216,-0.013251947566561065,-0.02678937157467623
0.0656379,0.02131827985799697,-0.009179470060078203,-0.04281685743072403,-0.06622249237811806,-0.01034188002184662,-0.019536009907151868,0.0013309075672654014,-0.036733919923536834
0.0661034,0.018697150589391837,-0.01679475858545959,-0.04512835327450805,-0.056091351768175514,-0.010897029882121632,-0.011746226473479594,0.032124776539185475,-0.052563004191448756
0.066569,0.016302530308717957,-0.02423011857205668,-0.04631578484564102,-0.04716091365769233,-0.011783488634230767,-0.0142014659026923,0.04204567876512817,-0.06480735795462078
0.0670345,0.013887452975445195,-0.03150050333390483,-0.046258344743094405,-0.03786727551475498,-0.012175225873214615,-0.022650482182564637,0.024982363630592107,-0.06267645051741326
0.0675,0.01215736954901359,-0.037965043152655475,-0.045685061982045166,-0.027660171847471823,-0.012334762207411072,-0.02405120864704077,0.009124514549395488,-0.04143105126191207
0.0679655,0.010628169662232699,-0.0371125898874109,-0.047960172616908055,-0.019185881180608478,-0.012942289887410901,-0.013425311518375782,0.02839860380067068,-0.026875314595723176
0.068431,0.011354242973612393,-0.031192782647497693,-0.04779366281055504,-0.005040628776132683,-0.012296337189444957,-0.008755317352502309,0.051811065294995386,-0.04707989847555091
0.0688966,0.014039429146571586,-0.02745160581863889,-0.045993389434796854,0.0028109956049472036,-0.012810037162736872,-0.01201046063973673,0.04440018415219527,-0.07522873496521047
0.0693621,0.016419053633519608,-0.0283665,-0.046530208430269164,0.0036116783503014256,-0.015148270494057932,-0.017300124127577542,0.02137841805412548,-0.07089855479674956
0.0698276,0.021663242258801767,-0.0250668991156762,-0.0443775965846038,0.0032258470267657016,-0.01612696244821267,-0.024167567510357466,-0.0014172862862511318,-0.036526523543857596
0.0702931,0.02751286933579851,-0.022697967333949628,-0.0464942,0.002113303345486279,-0.01708862912655096,-0.027036489111316543,-0.007307023779215798,-0.017262921777366914
0.0707586,0.031217348491500433,-0.023879764385624457,-0.046110690452744775,-0.004222709455561581,-0.016196174245750216,-0.02712502917581309,-0.009013432597376405,-0.016702325754249785
0.0712241,0.03469583381924682,-0.026718078473624337,-0.046806390651817256,-0.008420630989236642,-0.014467025958012034,-0.02515055608909646,-0.01751979150996947,-0.016507976871998144
0.0716897,0.039343335549051325,-0.028796695338279724,-0.04707788683860749,-0.007114634193037445,-0.010179790773733701,-0.0174471723212011,-0.03858062985858109,-0.009066245501911685
0.0721552,0.04295756362579624,-0.02726764025290264,-0.0465218517498775,-0.004334458749387512,-0.007677632874448762,-0.009940698623346286,-0.056512637244232014,-0.018657809373873572
0.0726207,0.04544785604746404,-0.0219101042803052,-0.04616410651751907,-0.00485638696496185,-0.00557263910511445,-0.0003247824905341001,-0.07242360428793086,-0.05461970187184578
0.0730862,0.03943255163144529,-0.01604124881502997,-0.04533923437135516,-0.005237494260782795,-0.005916127930451036,0.0058058198212937746,-0.07093277126147546,-0.07128388288873495
0.0735517,0.03135995356187811,-0.015445105703820433,-0.0429342562667133,-0.0017671446348984255,-0.013553980342817165,0.017001916952347637,-0.04492270944530374,-0.034581291591344376
0.0740172,0.01828604805152874,-0.01085749155796983,-0.03719551363526294,0.005937318697050685,-0.02288989597161245,0.01972236779055551,-0.014708316884060338,-0.002618168184386475
0.0744828,0.0025711815353395943,-0.007990176873899546,-0.033532579764662104,0.02352531852126483,-0.026730671092374432,0.006977952627714026,0.007848795395164376,0.0012387300277106332
0.0749483,-0.008824265947451726,-0.005918263304482769,-0.03171965539142242,0.034143875564525805,-0.02414077913060346,-0.007007386816848264,0.016395438869008575,0.013670134295210341
0.0754138,-0.01879322590862696,-0.001186760241571569,-0.030363914888335425,0.039168140913730415,-0.023956993652750256,-0.0155379346832487,0.018697464226383492,0.05573090992992373
0.0758793,-0.014687765100390798,0.001559685584162691,-0.029503612998255307,0.029542019219785037,-0.022932922577828214,-0.02207709142905647,0.006163945864447423,0.06483354353119196
0.0763448,-0.006569990436463269,0.002781443122457845,-0.027521304760709485,0.017180465921823377,-0.01758222336852744,-0.022072344879849964,-0.022947332320784504,0.0033149281791433225
0.0768103,0.001564394332490749,0.003947054296109056,-0.026731277148054528,0.0091510520554569,-0.012458868555836417,-0.012833147762634636,-0.031487301192778525,-0.04679714003638169
0.0772759,0.004028509147808195,0.0044605417382895095,-0.02701656417382895,0.005146213390631608,-0.011417475998065871,-0.006810125568328815,-0.016438386050107386,-0.04875133425977636
0.0777414,0.010034025599311065,0.0031681519041102295,-0.02625279810455456,-0.005869462976027557,-0.012255617731970736,-0.016034729407531523,0.01001360952921594,-0.0555214408321929
0.0782069,0.027845712478026384,-0.00028832323648830165,-0.024846895863296883,-0.018991643151307087,-0.011363050452265431,-0.040799391658676736,0.03463636842218843,-0.05419257992776692
0.0786724,0.06109650016547874,-0.0008379003309574864,-0.0231903668597252,-0.028228466197810227,-0.012292804688341251,-0.06131812574933721,0.04834802255030465,-0.013590593022759273
0.0791379,0.08262799223282805,-0.00039038857808664537,-0.021563107175988094,-0.031803049176899474,-0.013163047530698416,-0.07761714753069841,0.03662631780987364,0.025065430578998023
0.0796034,0.08298626184651593,0.00032289641436526403,-0.018944423711153388,-0.031904110310772914,-0.015344973199239045,-0.08731404226692031,0.010541578634413431,0.04460663146012024
0.080069,0.06140001468217882,-0.005078851794328933,-0.018481462838224366,-0.03131248020138535,-0.021081091441183756,-0.0845362770293462,-0.005985651696377446,0.03354365157361319
0.0805345,0.038804571573025935,-0.005315018882198375,-0.020884349497108632,-0.04662351353692436,-0.028237734570677818,-0.06992980874634595,-0.01078306463089245,-0.017400762235603252
0.081,0.004465656004127964,-0.005575415049502592,-0.021484512966068608,-0.06011454588448296,-0.03009400247843601,-0.047286969219048514,-0.011989656031142406,-0.0458228
0.0814655,-0.028283119660218105,-0.009923037942547647,-0.02054017931418255,-0.05698429283368481,-0.025807884794468498,-0.035962428877731996,-0.008350917326639196,-0.0341997173266392
0.081931,-0.05577957460896174,-0.006931244161000306,-0.019088654807084143,-0.035673506992706785,-0.01615778959749924,-0.03301294833033513,-0.009828933758499542,-0.024189771199167764
0.0823966,-0.0667194589009554,-0.000797613866999766,-0.018697801262335553,-0.014768311416280855,-0.004734597475328894,-0.017310134806058145,-0.023496511416280855,-0.030423969612116287
0.0828621,-0.0778381201040021,0.008600010799686537,-0.020477582852691748,-0.002533660134358761,-0.0021381201040020863,0.003656627782279352,-0.026600029724816447,-0.051073975161482425
0.0833276,-0.09320770342170435,0.01635567796237132,-0.02154457901086866,0.0021020981998353455,-0.012440523264750977,0.00555587151338001,-0.013971655746117686,-0.06620332716191031
0.0837931,-0.11486891834881968,0.013402881991747979,-0.02104491340850587,-0.0003221891091256238,-0.0251553226303903,-0.017867460020100877,-0.007307580769210756,-0.036350352188259896
0.0842586,-0.12240800858422925,0.010192891415770745,-0.01843286961799667,-0.002266010739526346,-0.0301824216628937,-0.03863623901519322,-0.004295341440251061,0.0007713367739763796
0.0847241,-0.09786015723535309,0.00015479462558573315,-0.018061507113085403,-0.005950296364256868,-0.019673340370152722,-0.021155858025488222,-0.004942025875357764,0.015202760871096219
0.0851897,-0.06196241865527547,-0.00693526019864323,-0.016522308622168264,-0.01120634143301041,-0.008244379283494795,-0.005666760848934025,-0.0016577904083221963,0.02279466138886747
0.0856552,-0.017153364082048855,-0.01458111149765805,-0.01413204233058207,-0.007062777548982408,-0.002822873111755323,-0.004978823694866906,0.0027618493651376513,0.02153702626632002
0.0861207,0.010650051021695455,-0.0225238510271045,-0.01601291337774066,0.0066089611114116134,-0.005181905557058068,-0.00949450277582451,0.0032205305557058066,-0.003224892184726454
0.0865862,0.03162650738729215,-0.027043072849956953,-0.01931317480043234,0.00953306778952228,-0.00813209194738057,-0.011239895981274695,0.009255543631663992,-0.026596938962780224
0.0870517,0.06348156921593394,-0.029902362716245103,-0.017855248745045092,-0.007469726075177535,-0.006589123565267721,-0.01042778587333444,0.03336819114586689,-0.04210313298304476
0.0875172,0.10301433901724241,-0.03399175420503451,-0.018623055047381643,-0.025926606975222786,-0.0024766067777230905,-0.014725639017242402,0.061961125103314564,-0.04299005018837026
0.0879828,0.13284870843501143,-0.03903818968106562,-0.0202712307351267,-0.024705941054061084,-0.0005227846324366501,-0.018218461470253397,0.06014464074933768,-0.0299792848541131
0.0884483,0.1422633788934424,-0.03647404785525057,-0.023286688658651484,-0.007597517001417048,-0.0035501767576595527,-0.013608471512020721,0.019011297304573727,-0.006441612191419366
0.0889138,0.12996343712137473,-0.03456657539532054,-0.026417180648041532,0.005349930502357114,-0.008979736906389165,-0.011966806834633184,-0.036542116403119634,-0.005812752879537692
0.0893793,0.10450193884302687,-0.03170645971075672,-0.02764592569362548,0.009263834017131238,-0.01235134861274904,-0.007527639566135078,-0.07155427918494141,-0.033425274950475835
0.0898448,0.0885152004674266,-0.027671619813029357,-0.027688122617589014,0.004963738916417166,-0.012971360373941289,-0.002684605851334252,-0.055016950112605836,-0.0500812391586321
0.0903103,0.07768387321427367,-0.021143079644101857,-0.028576909006055955,-0.006978851496361551,-0.011484548503638448,-0.009595643111355816,0.008705877244542326,-0.047212236412832495
0.0907759,0.07231813413305457,-0.016770443111575706,-0.030908428147373816,-0.01283598323031104,-0.008650102496924487,-0.02278536042606094,0.046347776252798505,-0.033252111426565235
0.0912414,0.07134108336328567,-0.01471134442447622,-0.029526001461273703,-0.0022155903102261424,-0.007856608986031846,-0.023194148628583308,0.04131926385781362,-0.014558994514333231
0.0917069,0.08138854678661925,-0.015258684825817185,-0.030008996334847063,0.019500635124544738,-0.010634200222205233,-0.026771407996921577,0.024292449701272447,0.00654931928374622
0.0921724,0.09519433682827755,-0.01747279461138754,-0.030920665777289975,0.027836175725067774,-0.013369286145026568,-0.033153326880499746,0.018171018886319765,0.008893711901375615
0.0926379,0.11643093181628714,-0.021240709672434754,-0.03190221188964843,0.027039016062368977,-0.01697963213634955,-0.03501001511379335,0.008656415753918165,-0.004967622842332822
0.0931034,0.12821086542439772,-0.019728296273193113,-0.03400906840584322,0.026094973623372854,-0.016119686995517673,-0.03651486431137384,-0.014275055033698393,-0.016384498509277246
0.093569,0.12651211387120428,-0.015191044283246104,-0.03587351387120427,0.03361222739687422,-0.013322245502094345,-0.0477391734764397,-0.02644824715759955,-0.015013229975384871
0.0940345,0.1131252729855684,-0.009932609129961798,-0.03728839672216361,0.04592958393891162,-0.012488236137627643,-0.06492292993711142,-0.015343378475771507,-0.01642166093969253
0.0945,0.09669256799398189,-0.007621514061453925,-0.0377661,0.04654674807394272,-0.013249590385211457,-0.06546645637272265,-1.1467993981891618e-05,-0.03187467563329545
0.0949655,0.08180071457096566,-0.0068462932972169046,-0.03606178884332614,0.017556403370397888,-0.011052226811132384,-0.03296300724452953,0.002072263115686635,-0.05197359052852509
0.095431,0.07135940920281598,-0.01154913840747559,-0.03550432510921239,-0.016780473805145787,-0.0022502711513581034,0.005217856813107564,-0.004280695530946386,-0.06534011112697956
0.0958966,0.05426371291266007,-0.014654499695910218,-0.036159892008516825,-0.02984816156610958,0.0031406870873399327,0.010050874405654128,-0.012222416371799346,-0.07549710814934191
0.0963621,0.023963496897449407,-0.01766556781387341,-0.03453083293597174,-0.03883220341015611,-0.001490499692394479,-0.0049548104997365556,-0.01701115465382589,-0.08465970266031096
0.0968276,-0.00847616905759544,-0.017450903912041765,-0.03166489851290656,-0.05680833417927232,-0.010243825474896641,0.02714719136399703,-0.017299374719411526,-0.08114067620650497
0.0972931,-0.025776463231223665,-0.012378734328320087,-0.02740394440726186,-0.07097346189730191,-0.014462984830284976,0.0863277984562175,-0.01827656168744117,-0.05545159645300925
0.0977586,-0.029860115392656816,-0.008512198278089397,-0.022001820361164427,-0.07500805726585076,-0.017028160756014758,0.07820722561958182,-0.018967,-0.02378903211277584
0.0982241,-0.02345635007637887,-0.0002441679157812337,-0.016026383881511747,-0.07316711866407377,-0.013830641003919949,0.003351906221357924,-0.0139487896141551,-0.01085622347003306
0.0986897,-0.01015070118259374,0.0072175,-0.014404677660835918,-0.07369112943472653,-0.0095674,-0.04991622350613065,0.007647328656748819,-0.02013360236518748
0.0991552,-0.0017757969697788493,0.009987225083701501,-0.013371911073910444,-0.07232893606327141,-0.007105422147820887,-0.052480894463044776,0.02778056730175575,-0.023694927873457176
0.0996207,-0.008230487551929453,0.006884743775964727,-0.011650920083211795,-0.0659912105041981,-0.009373292202646091,-0.02244725756590198,0.022485248727372568,-0.017804438824556887
0.1000862,-0.027779084276669825,0.0021872895920231742,-0.010487920927318588,-0.06830404268874644,-0.012885002657676675,0.0017308808962488158,-0.0015210092681778558,-0.03395571363304897
0.1005517,-0.041840547590609393,-0.0015796713859140908,-0.008907515326874168,-0.0632138385502497,-0.014186613287211741,-0.0001987223275714354,-0.012206952409390607,-0.07181939970139863
0.1010172,-0.04240802805173877,-0.0024308920776081587,-0.009049427703138128,-0.05413415117217964,-0.013193480219253713,-0.008852757098812844,-0.011639471948261227,-0.07777794454325711
0.1014828,-0.039009300158505414,-0.005086719651288087,-0.01189382125363217,-0.036044820602320574,-0.009467800158505416,-0.0033973651874452428,-0.007147780110953791,-0.05905453977809242
0.1019483,-0.03476051235958169,-0.012955232911962971,-0.01690625472845534,-0.02346017321322633,-0.006293015636701526,0.011171102848069464,-0.004743676544947711,-0.06770434940676526
0.1024138,-0.0271251119427765,-0.017995524474659744,-0.019014499299546326,-0.0220476705871005,-0.007000548248865815,0.006224401439048794,-0.0037773762257939303,-0.09572089871043958
0.1028793,-0.009242349693529009,-0.01812402465433726,-0.021005248382428645,-0.023413819951787408,-0.01036524630184941,-0.016070656163584315,-0.0010891248826548623,-0.06164902804601685
0.1033448,0.004425888827354875,-0.0125887,-0.01874608862411271,-0.021680868897467665,-0.012139862918640864,-0.027044892901112668,0.00041880506200843676,0.014673554699693
0.1038103,0.01146733058306802,-0.003147130713916398,-0.01970268340163898,-0.014177916941693198,-0.014849316941693199,-0.018348235402697206,-0.0012427641231222372,0.04079976603497819
0.1042759,-0.0005950580103634606,0.0010644813224397849,-0.022096247217026514,-0.006708145694758278,-0.014351705430524173,-0.0030646635763104304,-0.0004812690745460015,0.00898770774880047
0.1047414,-0.015817905858555165,-0.00075916782860276,-0.025715232520583192,-0.005020180493996637,-0.013527134958833613,-0.012062255288164705,0.0001678,-0.01669909449063079
0.1052069,-0.026462926389598237,9.968200097364936e-05,-0.028862966864572688,-0.004762191541222421,-0.013577812897940085,-0.03957834100048682,2.511065947920899e-05,-0.016538626983316304
0.1056724,-0.020821307281992045,-0.003427914893481152,-0.028060944917689595,-0.010299004680954325,-0.014702573191478493,-0.062195951063911306,0.0012759746567458834,-0.012189033050555251
0.1061379,0.0018581334500886303,-0.005628177090732335,-0.028369071819507485,-0.0177697123684467,-0.014403537455605991,-0.06547432600097217,0.000592677090732335,0.0029948943768805343
0.1066034,0.022068216713697065,-0.006088577361090936,-0.02812479931457477,-0.019330617372393156,-0.015006478705212257,-0.04987118066640955,-0.00013190404420212857,0.017100731344389296
0.107069,0.017590200610992784,0.003660373635355883,-0.02670955019648712,-0.013556290236526844,-0.014367767583606555,-0.0263163830058548,0.0005286429658150776,0.009814981608913542
0.1075345,-0.009216812180658472,0.014591333464488952,-0.025239407103684035,-0.00125262174194103,-0.014773231303223588,-0.005400085658076164,0.000756515651611794,-0.005707714503701229
0.108,-0.024042621068982386,0.014639790732020734,-0.02441686855386325,0.014370432158061129,-0.0156990408311664,0.008244176514376093,-0.00022543528662702904,0.000655063207615213
0.1084655,-0.019659911646312613,0.0009039137148446632,-0.02538447354421092,0.02762646010063428,-0.016316745019889795,0.012054756234838197,-0.0028730379420054976,0.01279086994968286
0.108931,-0.008168717514076353,-0.009007198436027205,-0.026820872810740456,0.0373939751130351,-0.01760946157158447,0.017082110879509654,-0.0035912803634521686,0.00790711244348245
0.1093966,-0.003437125172415617,-0.017364936358752393,-0.027615894081718155,0.045583343736886925,-0.020012771907879017,0.03511363278882012,-0.003544607378134527,-0.006995069758363866
0.1098621,-0.007162504745278502,-0.02627125019909206,-0.028922137165859785,0.04005234625823268,-0.0203098,0.047860124530811635,-0.0035248,-0.01809877874394841
0.1103276,-0.01195021709148367,-0.03355591696069099,-0.030292617222276347,0.025389469289187224,-0.018523958549593742,0.029313158680386416,-0.0004402966586381082,-0.028052592794105515
0.1107931,-0.01262613700289103,-0.032088577521682725,-0.03209837973720618,0.013194918501445515,-0.01609564801156412,-0.029191061239158638,0.0026676577198600005,-0.04101891100527512
0.1112586,-0.01028768480071215,-0.020562702866881107,-0.036678146802492526,0.004914179066949933,-0.01705887780338271,-0.10481265072931129,0.0028068297962612144,-0.060837453342198804
0.1117241,-0.0008782782625214021,-0.005021441761711749,-0.03982957704922373,-0.00644459059453226,-0.018376330332441796,-0.14476125399656797,0.000483962387772171,-0.07586403751034833
0.1121897,0.01594707216657876,0.0008859364226163763,-0.04316066304239154,-0.016461617604485147,-0.015922336957608463,-0.1376647026600235,-0.0013370898058286018,-0.07205334517041034
0.1126552,0.03760443304170483,-2.40448522528764e-05,-0.04377994725744834,-0.02314915919908127,-0.011926632910619942,-0.12482624839450364,-0.001203652742551662,-0.057245170334916926
0.1131207,0.05612550549475532,-0.0003313879602682977,-0.04446275954573024,-0.040020624437780684,-0.008637893601199476,-0.12534029244377806,0.0004603950119970869,-0.04673560231484281
0.1135862,0.06693638053354012,-0.0013964890630866259,-0.044576584913421424,-0.060834452656355016,-0.00635967148188184,-0.1117251816349054,0.001589558889929486,-0.06541614023892135
0.1140517,0.09105202228944294,-0.0063939177418426765,-0.04431717065237213,-0.06627380802230597,0.0006156140552509258,-0.06293083854027996,0.0008492291777354344,-0.0931043003761175
0.1145172,0.11297690915067377,-0.012773340925181398,-0.04160741804849699,-0.046887425956462093,0.0035439805570840355,-0.025626928865484865,-0.0003500077562547867,-0.07393273043065876
0.1149828,0.13212757871774156,-0.022179035322194757,-0.040246472492517595,-0.024828418703227273,0.001985130372708686,0.008397327012711014,-0.0016870431369071066,-0.024816346496904777
0.1154483,0.14283179425479106,-0.029991389725716546,-0.03999160493585096,-0.020102397936753513,-0.0018340037071318388,0.012700698771280883,-0.00034180246582802914,0.00013968357792606273
0.1159138,0.14740288504807217,-0.03393722803751176,-0.04265275441685924,-0.02938784958782388,-0.00753266560655637,-0.03091715700583051,0.003753613192038693,-0.023587522379394266
0.1163793,0.14047303141240394,-0.03365096325724438,-0.04669704570914375,-0.03537766909690678,-0.009488789422488165,-0.058390718329782064,0.006498938306118482,-0.07925983407757979
0.1168448,0.13065942955398258,-0.03828855748258005,-0.04871998123548338,-0.030007185034839894,-0.010313271258709972,-0.03898129782602861,0.007864076247096676,-0.10863970576923893
0.1173103,0.10739722293402201,-0.037058449789837855,-0.04849003214043694,-0.033155186572092085,-0.007762583314804811,0.0079052950367808,0.0049126421225295334,-0.09558165462018318
0.1177759,0.07667185105973705,-0.03701624337685061,-0.04990724044510671,-0.04342870697583309,-0.010272424267064022,0.04299773988851258,0.002405622448508369,-0.05891347532680107
0.1182414,0.04651767637539236,-0.0347056727076794,-0.05084106431733114,-0.051325445697062586,-0.011425885544674745,0.04853544174764585,-0.0009487564184976711,-0.029666261143990756
0.1187069,0.02132404376425631,-0.028882667652448724,-0.05399902943882978,-0.05341847599087596,-0.011292470512545548,0.03722612249429748,-0.005355008507983532,-0.014572995576451945
0.1191724,0.008286989674257634,-0.010587174939559924,-0.05252740736399735,-0.054147358234834214,-0.011807778864994655,0.001985738081491363,-0.009802685507062595,0.033480333171042626
0.1196379,-0.0016331934709686426,0.006296948366645355,-0.056628479081193,-0.042333654232013865,-0.0087325474487158,-0.049055797806349714,-0.017388665355080213,0.09107626495007129
0.1201034,-0.001560604038034962,0.010217063545451812,-0.051531815114431896,-0.032702058157281354,-0.006785064595577928,-0.08849625171898479,-0.021259816314562707,0.06098628368543729
0.120569,-0.004888883018618219,0.008879717962201099,-0.04745947351043403,-0.03054396879301592,-0.009360111866893242,-0.09649738773603633,-0.020246603388059087,-0.03655243851832044
0.1210345,-0.008071013501687978,0.010445046624578007,-0.048815578505512734,-0.029292418379246756,-0.00844087477971927,-0.05269545057588265,-0.018565786317932046,-0.08170775750710661
0.1215,-0.02177482452587628,0.008021414009953483,-0.0471823157536961,-0.024895457910127032,-0.008053536865190548,0.004376944046380354,-0.013776094848420984,-0.07006578752102438
0.1219655,-0.03936216879772121,-0.00025630953674347207,-0.04894036634866529,-0.018850917026903682,-0.008741693736576475,0.032971323022012104,-0.013049040048915786,-0.06923304590986666
0.122431,-0.05125692209641586,-0.0075951526774563904,-0.049226259327217185,-0.013182186544343614,-0.008803081345565638,0.06054407775390528,-0.0077645272171264325,-0.07537253138459934
0.1228966,-0.054400392524309706,-0.010684288786464553,-0.04768955934461287,-0.004503748591986938,-0.009790144393232275,0.09774281685037199,0.01219319160488282,-0.06951629298521922
0.1233621,-0.04087462055610678,-0.0034013686857558185,-0.044121990448035435,0.002671353662675505,-0.0090342356410978,0.09109620921181766,0.032084052920470986,-0.044142783184595136
0.1238276,-0.01700233940708027,0.0073195356748332,-0.0400578994325678,0.0032974710022314726,-0.006814507244496871,0.04802925418968064,0.03362456695935415,-0.0115889982438751
0.1242931,0.007882784314868902,0.010421650066242308,-0.03872065734615613,0.0068197041363663325,-0.009737687591007935,0.012720676174727783,0.019017773891514524,0.01866712382527222
0.1247586,0.028183249128928663,0.0013751069437857627,-0.03342242863139664,0.0010899300413309036,-0.010110352061150187,0.010883605532234641,0.008146761438844862,0.019513964260330252
0.1252241,0.04539299228661573,-0.01316634137967917,-0.031793818965240625,-0.0069404026288615375,-0.011440962069518754,-0.00917727586096249,0.009590483579694728,-0.02020094473960294
0.1256897,0.05501733071555634,-0.014591806776072186,-0.03357020781633517,-0.011367904481237433,-0.012211115011449735,-0.06809716445560011,0.010472601875792376,-0.07752755622022256
0.1261552,0.05600425667885589,0.02113843082520885,-0.029451141050807338,0.010017026727805987,-0.01494682890701214,-0.10941067301118457,0.005535540789797896,-0.10311944261686398
0.1266207,0.06038539156263998,0.08481103852394499,-0.031198523228805855,0.04945194049842113,-0.014573615354238829,-0.09434410680808074,0.004698722212017937,-0.08600802924709613
0.1270862,0.05725478834860992,0.11249100908702739,-0.031200344558066164,0.06979609541842452,-0.013813871336980357,-0.07944433843030427,0.003711297302529977,-0.07481724361601344
0.1275517,0.0483904191664088,0.09702599002010262,-0.032644483895761675,0.07981851629639133,-0.01431025805211916,-0.06552621268132809,0.0013040741563574811,-0.051530457619472975
0.1280172,0.027655231700956805,0.05488329618642095,-0.0329734338058337,0.07174523482716005,-0.014708437812631453,-0.03794221363111307,-0.0009375783552914288,0.059126627016520585
0.1284828,0.009464019727051156,0.017083001648220658,-0.029819213569730413,0.04357665795932814,-0.00613538466322709,0.02561060234892587,-0.00014279987201160863,0.15603882644792216
0.1289483,0.020729360119356853,-0.012203496439805341,-0.033562392867222665,0.03121751292146097,-0.01454222562128249,0.13217965747344626,-0.0046503628075442414,0.11614547617120285
0.1294138,0.05393869729173562,-0.036401309741429376,-0.03436169515799008,0.037335201468951244,-0.011309100180550959,0.14415050164950222,-0.0026244012638567083,-0.00701230324991725
0.1298793,0.08624748186180968,-0.05348985286433886,-0.03288884555841433,0.047393361022595684,-0.009478592258808049,0.06252296607157613,-0.0029827154459788215,-0.06838802280651098
0.1303448,0.09772437343310167,-0.054916452411454236,-0.03163643263143576,0.034710812203739616,-0.0036692793768561354,-0.02642878942878479,-0.0016125920998823011,-0.06771969660656008
0.1308103,0.10142877493988191,-0.05560684084262825,-0.029070260849700935,0.004500558406363933,0.0021338697592026405,-0.051554017067995596,-0.004515721954669601,-0.07386255633113314
0.1312759,0.09686392495736795,-0.04836980908305249,-0.02683347002437101,-0.0277473798903649,0.0007742006838539343,-0.004576674872103861,-0.0010352758970141652,-0.08622376988869258
0.1317414,0.08339332425126868,-0.0526374773336816,-0.026686484637668886,-0.04687352143567622,-0.002766268090435957,0.04788283266029194,-0.0028624339366744985,-0.06500352169850354
0.1322069,0.0628266521760285,-0.06060847260045229,-0.02037349179683395,-0.04831719360409186,-0.003016998604975218,0.05709637678552664,-0.0032146128004735203,-0.005596357422162335
0.1326724,0.03738224321236907,-0.062048840479186226,-0.0192044804271565,-0.028497013804612756,-0.0027498937975354277,0.03739647422469193,-0.0028686289581236115,0.012340546313601352
0.1331379,0.0076610308508774285,-0.041249242021929,-0.02013917924009072,0.0015295016866014636,-0.006805985744731993,0.008395792401002777,-0.0017512576748119795,-0.020284794589714678
0.1336034,-0.03128127085642528,-0.01996880729977196,-0.01834798120799571,0.03673592800291283,-0.011155307763677826,-0.02689225646973152,-0.002182,-0.05049608986127973
0.134069,-0.06730051060528254,-0.015181715452147311,-0.016645174083089912,0.05379080510000958,-0.012955261515950897,-0.04567776990623216,-0.0033506065805433694,-0.06316313659825191
0.1345345,-0.11850170300127151,-0.019873942208323263,-0.015398822057822427,0.05711745520146369,-0.014210341980692778,-0.03463103729973017,-0.004504844684721069,-0.06687971535572299
0.135,-0.14939732362147795,-0.025601677059098518,-0.013989832454035652,0.051798687839047584,-0.01436780063340745,-0.014936520869396466,-0.006095507025624783,-0.06976687235962566
0.1354655,-0.15710258031088797,-0.02484313543283342,-0.01158303543283342,0.04889193654003053,-0.013204587404685662,-0.013128127405022897,-0.01001260314840704,-0.05429280993199125
0.135931,-0.14328326085893162,-0.017071436927334798,-0.007239756674390168,0.0236815269647487,-0.012754524551827235,-0.04524577524898487,-0.012754524551827235,-0.0030974371038559835
0.1363966,-0.11323742381859372,-0.02528284665626617,-0.0005366048518470427,-0.023428243853481752,-0.013949483886526512,-0.054382015258774154,-0.012992686664066543,0.023430120914831758
0.1368621,-0.07906863255579316,-0.04290961152120397,0.00415600836776084,-0.05790862776070485,-0.018251100670289476,-0.014208421132066471,-0.0172895096108625,0.0015339534398492232
0.1373276,-0.04001644809002333,-0.05833640936069211,0.010336943925912907,-0.08051216957338851,-0.018410956762401266,-0.02114090307137156,-0.015802261270668774,-0.02999821615322718
0.1377931,-0.012833355738572996,-0.06695025132497068,0.018571986654246878,-0.08621314154522979,-0.014546279608935878,-0.10053693280251368,-0.022189792088866244,-0.024252533615863364
0.1382586,0.0026899610841378953,-0.06405000029293782,0.023264733796051363,-0.08552144665734215,-0.010502787871053767,-0.1475890277892572,-0.02162940515069271,0.010224327318968498
0.1387241,0.009134616107056119,-0.05048839512781557,0.024045918601537562,-0.07800638139846244,-0.00962723645667173,-0.12051413507833941,-0.02169611536065273,0.045193352680506296
0.1391897,0.011184716318270201,-0.03976464224938562,0.025307547640775994,-0.076744752359224,-0.011361929408076203,-0.07667271387499727,-0.02295765044479441,0.03667745062074361
0.1396552,0.011897456295329567,-0.032391814960192424,0.027251107476483398,-0.07148844410145647,-0.01671783149634608,-0.05803920944923066,-0.02587927795288458,-0.00987113109956005
0.1401207,0.011761935428780549,-0.02778547765638899,0.02765750864567596,-0.06335969428056001,-0.019698402692924773,-0.0623745857351633,-0.02723408304223853,-0.02111597298358422
0.1405862,0.0072629416230267745,-0.023466772501469058,0.027337005372292243,-0.059879301117299964,-0.019335779357900512,-0.0712219831046511,-0.02742628439136496,-0.0082246
0.1410517,0.003628287127568367,-0.009777157897616285,0.02652613569449396,-0.047612093179483575,-0.01821466784724698,-0.08252633194643968,-0.027722077384251007,-0.008467396458259056
0.1415172,0.010644661750591306,0.003137402967992418,0.02428237348618895,-0.021947680039131348,-0.01721464552569336,-0.07804251455256934,-0.027886784875109122,-0.011482233217774175
0.1419828,0.0241483966057562,0.005781056669981362,0.018367646103243877,0.01460721691317493,-0.014944129500578227,-0.044769878424474885,-0.027837983839384496,0.003945505283368742
0.1424483,0.033191803682382386,0.009330778309910713,0.011615613644753974,0.033267917175446214,-0.01455261894079233,0.011394766430502856,-0.027980518940792332,0.01557697223247708
0.1429138,0.03893773665969578,0.03175183474638101,0.005723874728612205,0.03009939161055797,-0.01360951138830798,0.03938266973906854,-0.026982565835076057,0.008011848552097873
0.1433793,0.042378201567927445,0.060422290243066126,0.0025701152293998407,0.017197733609934672,-0.013896216797327287,0.03106821287750867,-0.02612244960801814,-0.003456282403428894
0.1438448,0.04124606729725608,0.08547611069471359,2.045918120293795e-05,-0.0014530953233702615,-0.0146029,0.003234731688570765,-0.024960381516514227,-0.01681357393394309
0.1443103,0.03565461132691739,0.0887706757819577,-0.001545387380437592,-0.01142566329100198,-0.014407022782441485,-0.015168255963439532,-0.024240811326917393,-0.01778464143692133
0.1447759,0.030549320239313005,0.08030971547665886,-0.003098513528128197,-0.015570230193483421,-0.01489984563488941,-0.0010453408722352528,-0.02352477182555295,-0.011123649982373569
0.1452414,0.0304024516013922,0.04715759633306395,-0.006807726263324627,-0.024737411803524137,-0.01621860969680209,0.05810032430175263,-0.021915044646269102,-0.013039515555862836
0.1457069,0.036228299324516475,0.00506547278565625,-0.010726421749430401,-0.05149158723638835,-0.018469454557131247,0.11683401208812813,-0.022577332592034663,-0.040519566581037496
0.1461724,0.042540033248688644,-0.03866271058928993,-0.014006321496872936,-0.0978939858931467,-0.018780543418726637,0.1805856025732568,-0.0208693540137454,-0.0871516858931467
0.1466379,0.037330043144766845,-0.061894015337302155,-0.017963773016302587,-0.11796325670948808,-0.018754781096837304,0.2387949960383017,-0.02113554217525449,-0.10874510533844146
0.1471034,0.028409527414108026,-0.07343974434309795,-0.020301443214479357,-0.10715652052865801,-0.019852245185737524,0.13661792544284987,-0.017379248914441554,-0.09647514188600204
0.147569,0.01920359639910931,-0.0786424012002969,-0.02418938113839887,-0.0887535258918079,-0.0243638915457935,-0.156001527356699,-0.021645802803103523,-0.07727743398439604
0.1480345,0.011638305824647865,-0.06323498332203642,-0.027890266698694547,-0.05959234172271546,-0.0236667,-0.30618153361686723,-0.020848480848668777,-0.0406245360214621
0.1485,0.0013970348377323992,-0.03377690026548219,-0.030293588298928472,-0.03077334385403463,-0.023509900235534772,-0.22002240929675812,-0.022177877925267885,-0.015396255084036616
0.1489655,-0.01174679945002697,-0.022821504879399383,-0.031691119024120126,-0.013364832922102157,-0.02374765243969969,-0.12851803341557957,-0.02078691414472074,-0.015268807717454945
0.149431,-0.026421935363608717,-0.023303010753247446,-0.03301032150649489,-0.006532276337654364,-0.0236667,-0.13741235471425287,-0.020337789246752554,-0.0316461897337635
0.1498966,-0.03435966395200051,-0.029304389532800713,-0.03598396833502513,-0.005292284886399081,-0.025039161628799694,-0.15009517384126334,-0.019233489532800713,-0.042480911904972316
0.1503621,-0.03297634917810463,-0.027367748849346486,-0.03778231874796418,-0.00778225147941166,-0.02586915049313722,-0.11827901645540698,-0.017296848849346486,-0.047599135361512654
0.1508276,-0.024890572652877956,0.0013229287754796596,-0.03712481008183424,-0.010594069061151182,-0.025503265469424406,-0.04304796958886305,-0.012223898571642383,-0.04817321314584916
0.1512931,-0.006392765515157706,0.05098770909317879,-0.036098137267480526,-0.008235137267480524,-0.02518400429762493,0.038826069018601556,-0.013083007055804676,-0.037676251330172904
0.1517586,0.009324636050670973,0.08652143462646267,-0.03525839579146548,-0.009496241683413809,-0.023737858316586192,0.026168124648310025,-0.016225729258775946,-0.048199081741653604
0.1522241,0.02076031908430798,0.10247235565312544,-0.03322524411946087,-0.016768516167358517,-0.023227699341424518,-0.030046687611914532,-0.02033053124497976,-0.08510589333534577
0.1526897,0.02088037287157723,0.10355537609254233,-0.03128697287157723,-0.023394260917848395,-0.021040013322005714,0.013360927128422769,-0.0197312127928892,-0.10061008436402774
0.1531552,0.0191680518261042,0.08644681647561112,-0.030207766306126753,-0.020160166782531096,-0.020299537564863888,0.06843385699749682,-0.014971139560452457,-0.073101950993482
0.1536207,0.01682689527673312,0.05937670472326688,-0.028030827557227005,-0.012924344885545986,-0.02593288728886969,0.02798886850188038,-0.015442108664159489,-0.02882831012282982
0.1540862,0.011085785197386669,0.03770219429148889,-0.025442323291198013,-0.004551544553453684,-0.03349910857017264,-0.06052199437307685,-0.012062113379188541,-0.003132908930926308
0.1545517,0.0011904773667404194,0.013816199986854747,-0.0280045064121571,-0.003042141882876132,-0.03502913615270574,-0.09803402566177365,-0.013803702045960122,0.010352343915690999
0.1550172,-0.00805499536108033,-0.018831828189257275,-0.028470748260405125,-0.004597267299680777,-0.0314955684594107,-0.03257136366762735,-0.01571998706510128,0.007564677609392315
0.1554828,-0.009721443514171936,-0.06115915999771885,-0.029987582471182772,-0.01556360060433652,-0.03385777889861185,0.03652913494350612,-0.014503530603195945,-0.005691239397944629
0.1559483,-0.014265177775931812,-0.10010087945993579,-0.0323059174926478,-0.017195405896870148,-0.04208166429818753,0.043444546779035906,-0.01584454350715306,-0.021308824357005082
0.1564138,-0.017162399855448728,-0.11658857905986533,-0.03135775369078667,-0.00794505959604534,-0.0461585,0.024876269014765206,-0.01576935516710134,-0.030227873154606663
0.1568793,-0.02111765175365495,-0.11924438132647963,-0.02899241382383996,-0.0001678,-0.047410327647679926,0.011097591025840445,-0.014085255295359846,-0.031097586176160038
0.1573448,-0.02222607261368353,-0.11373212645536286,-0.028760978595784418,-0.0011934443490394897,-0.0461585,0.019163441159799424,-0.012133870034098186,-0.03152626070210779
0.1578103,-0.01822739118134325,-0.09985616348653643,-0.028490512675601553,-0.004693116478282018,-0.045188603802680465,0.02745909118134325,-0.010138724083642948,-0.03618767591635705
0.1582759,-0.00903557666912085,-0.08191669923246828,-0.026844509454127138,-0.004127168658774432,-0.042026632309957714,0.010136732511158132,-0.010713333461255286,-0.04185177608415457
0.1587414,-0.0021641332376285626,-0.077159546087589,-0.024862322946965148,0.00010133318752700743,-0.03568376145011867,-0.011534664199700655,-0.011506192318735165,-0.047930281931242394
0.1592069,0.008509976986471709,-0.07727970927270475,-0.02238344819504232,0.0065158973633997995,-0.029497602234059405,-0.028483555804462022,-0.011867904636352372,-0.04936731390905711
0.1596724,0.026805134873705512,-0.07432260210945231,-0.021395204188771076,0.011829864980101523,-0.027628944092038473,-0.02194145382864276,-0.010389351054726154,-0.042547244061904924
0.1601379,0.057711578320776044,-0.06924564243906761,-0.021182913513152823,0.013213552259779,-0.02208320761452438,0.007757952213850698,-0.009143122736389155,-0.033444029523389845
0.1606034,0.09212649229680384,-0.06926988923861191,-0.018371728642124104,0.013779242715751788,-0.023497015063365156,0.032786091973448686,-0.004284487582492109,-0.035814270863007154
0.161069,0.10451789465559662,-0.0638576189001961,-0.018941450241511452,0.012639799516977097,-0.029763952656625958,0.02566457198110686,-0.0024329348123652275,-0.03125649806790839
0.1615345,0.09441922033784841,-0.034174575624813304,-0.020202316904340496,0.012628456713007875,-0.034714090544097284,-0.005727460191332624,-0.0008612323714337987,-0.03525287362855258
0.162,0.06951601125001089,0.029618187182776073,-0.020140104557495937,0.013234439874741665,-0.03274003904830641,-0.025551018029011753,-0.002092487980796901,-0.057281117317062605
0.1624655,0.038196246058627495,0.09195232733443333,-0.015070497125930579,0.014123584865400345,-0.03423601434640893,-0.023364161120561514,-8.676700206254736e-05,-0.07140087553963609
0.162931,0.0010717989529392515,0.10433800295329788,-0.010839784435483241,0.015459753891129191,-0.03783651556451676,-0.012124348569212873,0.0005035,-0.07652710538306541
0.1633966,-0.04426555009399036,0.08375089045396028,-0.009188119509585955,0.01756130209386624,-0.03588569407660526,0.008391698157156501,-0.0017480092950169731,-0.09869312185447494
0.1638621,-0.07347262813822492,0.040397888100800916,-0.010638709151808305,0.011529256210155636,-0.025664847712047925,0.028420952221657872,-0.004885745750946144,-0.11113954437725075
0.1643276,-0.06759029761008166,0.0255623542965101,-0.007461179003095153,0.0019529232327277755,-0.018719979664394655,0.030692550127380785,-0.006600387341353784,-0.06826298256151708
0.1647931,-0.03323045438847712,0.022423635435190804,-0.005680593848972249,-0.002710387141205806,-0.011327977194238559,0.005447080433439364,-0.0058722362589847445,-0.020481333019783943
0.1652586,0.0032261413982585196,0.036152770814969676,-0.0006498839610414088,-0.004503770583288846,-0.001491376838544447,-0.01661400466017067,-0.005717919368526245,-0.04926419397642522
0.1657241,0.023107889949413964,0.04641927061900951,0.002275397552571752,-0.0007064703766408527,0.011703798500817092,-0.010785189309737535,-0.004272270068071942,-0.09401678695104815
0.1661897,0.025760017307700292,0.036147120833350636,0.0006428989567091566,0.007760791506425558,0.017486673677079845,0.007662077724375606,-0.00404850973475419,-0.07802559461097748
0.1666552,0.03458523308823098,-0.00490013977278318,0.0032553427672256936,0.02067399454548436,0.02218493717911771,0.01992557931802155,-0.006194426403678782,0.001814345494483512
0.1671207,0.04722071142605192,-0.05628663570551437,0.00046935075123724114,0.0160258138037038,0.027443401356611587,0.018724609233739586,-0.009053922891580487,0.1082160912038491
0.1675862,0.05057456071254436,-0.08066146757960016,0.0003755749595791018,0.0014057492885131337,0.0481727,-0.0029659213389594515,-0.008553564103007626,0.21355864937464242
0.1680517,0.037616563112256134,-0.06938088056994836,-0.002411030262189806,0.0005034313353974784,0.0538615287364409,-0.024707639753715024,-0.009895227706551862,0.24723419637115437
0.1685172,0.022709639258239864,-0.03308547999501384,-0.0017794397950956508,0.011338477789678052,0.04792582742627721,-0.03331220790459561,-0.014166908160558121,0.13539140348145864
0.1689828,-0.000239154491834262,0.011169410966690085,-0.006359974377335114,0.0255365933409692,0.031372212405767354,-0.04821448578680542,-0.014260292621430568,-0.04618984154212262
0.1694483,-0.03044447957777599,0.038461415836146574,-0.007278154366679136,0.02987957738186114,0.019084590945845723,-0.05852301986478286,-0.0159457,-0.18508388863193026
0.1699138,-0.0509657767255193,0.046352059108927396,-0.007802917616591902,0.020607813989536847,0.012506882383408097,-0.052417300434985284,-0.015966152373127804,-0.20856247902506073
0.1703793,-0.05910324573848921,0.048405480114393294,-0.012802919294661694,0.0022690245130531023,0.0053157162140582475,-0.03678226120366307,-0.014119659479902201,-0.13337846718795204
0.1708448,-0.05934339845562558,0.09037088109223228,-0.011548068580284431,-0.016249963669734937,0.010665002117611634,-0.007875938666198897,-0.01640714157536994,-0.012047233002834385
0.1713103,-0.04352438343626346,0.14062443932123248,-0.015065167427217219,-0.022157838785453614,0.012187022112249358,-0.007046057522776778,-0.011361014162460095,0.08687897735197178
0.1717759,0.0025475200428616202,0.15298392735065966,-0.015209484316231108,-0.022900945762889653,0.014684460610578261,-0.07387378407820247,-0.008968436794803298,0.13264128348608697
0.1722414,0.05828886228547349,0.13618096346088207,-0.013971156290309046,-0.036547774866091585,0.017174762043164142,-0.16407232764869223,-0.006279157305391603,0.11328461664611812
0.1727069,0.08643451988414635,0.11851877901582755,-0.013351162585939538,-0.057738670365407765,0.014782562035926494,-0.21544042830534527,-0.004495474965624185,0.08121463778078461
0.1731724,0.09104994353320792,0.0939034676686894,-0.01490719249417117,-0.07118092852155027,0.006566351732726726,-0.2096258107388224,-0.003939020323876304,0.05353453799221908
0.1736379,0.08329597126842686,0.033616251756215784,-0.019645788297712612,-0.06049696576726651,-0.0099662868851811,-0.08891360726842772,-0.005340801596198508,0.0164523489437509
0.1741034,0.0742883446015337,-0.02608156678881523,-0.026018159453151182,-0.0395921222556945,-0.024220337107311987,0.19399581353117668,-0.006478804054684881,-0.021475703190834458
0.174569,0.06329219246452468,-0.07782052580024312,-0.028507751991748112,-0.022110645181554235,-0.03401993390338478,0.39935064989033187,-0.005288481918791958,-0.039465917136590395
0.1750345,0.04555048589405404,-0.10775680108541213,-0.027987034861777022,-0.019808623800675697,-0.034885943121716216,0.2477625829182027,-0.0049259749392229655,-0.02630855974786486
0.1755,0.04023580150421299,-0.11971279153673503,-0.02784209525144129,-0.017740325999113054,-0.03742855792342564,-0.037936609169545256,-0.0041962,-0.009168119418769176
0.1759655,0.03047471428653379,-0.11477595292111578,-0.025544156642735672,-0.020500604111766303,-0.03986755047221796,-0.12843372167314704,-0.0044301386912085315,-0.00045262029290843816
0.176431,0.028003935894304915,-0.12157692017133405,-0.0236667,-0.020202343577219655,-0.04521866158542629,-0.05645774357721966,-0.004303656422780343,-0.0343701050120797
0.1768966,0.02635026203378491,-0.12943093710052977,-0.02353739562034936,-0.016923876781928738,-0.048208948093340864,-0.05336031369907663,-0.006030385917972864,-0.0814286787802788
0.1773621,0.014585090476986872,-0.13926947753278793,-0.02261863906477785,-0.016248451583000638,-0.05586125685587917,-0.14460902053112645,-0.007012695323889244,-0.13949249700479036
0.1778276,-0.003246809894195282,-0.13200447229443918,-0.021237015285233838,-0.011202742826157505,-0.05643824695037294,-0.15529663376464883,-0.004909753346249788,-0.16088360412421543
0.1782931,-0.026556930486866775,-0.12665600849012645,-0.023783893329799476,-0.011798905053442325,-0.055872067336925124,-0.09627849388924938,-0.0014356660641307911,-0.1383886779786231
0.1787586,-0.047125155764984196,-0.12518300651288328,-0.02538146669854721,-0.01314059844551822,-0.0457516648860673,-0.1059333617401457,0.0015412943415202044,-0.07973788692239696
0.1792241,-0.061595325662021035,-0.1281813766900901,-0.02566384628310105,-0.010264380575348422,-0.036016230071910335,-0.15435128628644687,0.0023541621592130524,-0.016924238219891467
0.1796897,-0.06776625846024018,-0.11875232143821736,-0.025615471084293375,-0.005940128915706624,-0.028137878038317073,-0.15059427050814714,-0.0007397841474975715,0.0035426717658009806
0.1801552,-0.06354724492284695,-0.09954206611989694,-0.025143522461423477,-0.0024225215387900624,-0.015973223384056892,-0.125661477846121,-0.0054476760350497646,-0.05488601044475276
0.1806207,-0.04139688867505125,-0.07365749920511439,-0.024938623392229235,0.0003095532155415273,0.02580270543261498,-0.1244146246863489,-0.0024113850883438546,-0.13327455401042715
0.1810862,-0.01583703054867261,-0.0397292275009301,-0.01837318970987006,0.0009478806265939691,0.06791620870097528,-0.13835560468484281,-0.001960784438938089,-0.16510253112212384
0.1815517,0.01301822377601145,-0.003135679460985177,-0.024691696935067745,0.0011749,0.10743466668506303,-0.11128887696743515,0.0008481484675338718,-0.16761007986030302
0.1820172,0.027782458491877868,0.02177893798876079,-0.025306877199332656,0.0011749,0.11358637770122064,-0.076838965421583,0.0011557385996663295,-0.14208019051980061
0.1824828,0.03178088327807872,0.042933936082857616,-0.02297186243532795,0.0023325000232310906,0.10872546245855903,-0.05849582680015345,0.0024255271316811176,-0.08480181563441393
0.1829483,0.030065702299398863,0.0668378665170831,-0.021835969361445405,0.0016629306385545944,0.10526390543239932,-0.045688866517083086,0.00539702787424858,-0.04066109679143348
0.1834138,0.028869350740364286,0.10812487887072417,-0.023481435666327856,5.079946091510445e-05,0.10366468896349,-0.01111918196240594,0.007351220592291427,-0.009121697036442368
0.1838793,0.032162735523715985,0.1243496273804208,-0.02636955592061933,-0.0022165118412386603,0.0990551006615056,0.02308941882475611,0.00995486776185799,0.02529997380704536
0.1843448,0.037737255315894655,0.10483890036145764,-0.02729864255264911,-0.004074685105298218,0.09131271206125742,0.010082298230001405,0.012742127657947327,0.04093955265271554
0.1848103,0.03834057623645939,0.05628437334926531,-0.029095118073099623,-0.005140831777412359,0.08014758238581512,-0.0384141411129382,0.01705555670266835,0.00977615770444502
0.1852759,0.03582931797074498,0.02032297424205999,-0.028661241913100863,-0.003776494908225027,0.08819864474937374,-0.05678043502437919,0.020090060361038643,-0.08035257515917077
0.1857414,0.034387876010351676,-0.011414609654627846,-0.029451521563031765,-0.001983714801434736,0.09564918250429413,-0.029365662594931303,0.026444477063913473,-0.15407215415374614
0.1862069,0.03535099079011411,-0.03056905183561828,-0.03183096776539938,-0.0012727138148288391,0.0911650506543724,0.010608850463123987,0.03166794474068465,-0.15219703173206323
0.1866724,0.03940111409648135,-0.04437988247878944,-0.03448463130061864,-0.0036735106717521396,0.07188534470436955,0.028225158859434794,0.03127737485610933,-0.08585050227585037
0.1871379,0.03668762153902425,-0.052128990933469704,-0.034860840888775245,-0.007484422845103585,0.059746472711020196,0.052149625547540684,0.030309854399181754,-0.011961231822244952
0.1876034,0.03641315063574344,-0.041513615055416134,-0.0340734,-0.008589248116437053,0.04977712010460886,0.09923649750436099,0.02576560462889041,0.029415952314445205
0.188069,0.03736993639544234,-0.00915642832212319,-0.033842553447514745,-0.007293649329140733,0.05497041379005898,0.07655574618148264,0.026939613790058974,0.031720131592240755
0.1885345,0.034408714901405596,0.02479237195131963,-0.03519733664676969,-0.00841726222046295,0.04983948834592073,-0.02788949752501289,0.01865198605114769,0.02239352900123366
0.189,0.03953337781952905,0.027441038239123586,-0.03394592703246025,-0.00737529023123313,0.044860487018169685,-0.07735550086777022,0.016888147574005346,0.04213733958040546
0.1894655,0.04841948330900674,0.0011245714815305756,-0.034417038815452036,-0.006829255975836948,0.03352749669061742,-0.028571623086883047,0.01239224520946268,0.06966628923550487
0.189931,0.055457503235592405,-0.023951239055931647,-0.03421825721355949,-0.0052765982747951246,0.026138514427118988,0.02696563856101519,0.010144284062493483,0.07001728015681088
0.1903966,0.06064579798724848,-0.027501124938643696,-0.03312598463426348,-0.0037747641497175004,0.023953969268526956,0.03816143249879935,0.008642368594507064,0.04325676464987608
0.1908621,0.061922596738197784,-0.009340059659607332,-0.0335064500139777,-0.004485953163958299,0.023962646891952512,0.014027303317713031,0.007247380234604315,0.04731269634792757
0.1913276,0.05818497909786091,0.018818298889505758,-0.034836569031918466,-0.006802824620599435,0.020223819790719594,0.0008497052360626018,0.00602105858084892,0.055047039175256426
0.1917931,0.045856309309764795,0.04234988602595829,-0.03590123958529975,-0.007851521647535841,0.008458972460984236,-0.022170602736519187,0.0013138846530117501,-0.0002172578145507166
0.1922586,0.035576109860243454,0.04329419771204998,-0.03755635669156954,-0.004017408723464002,-0.004233165316867392,-0.06505954849460774,-0.005769839357198787,-0.06931039344848412
0.1927241,0.026072084134681598,0.04917628266141049,-0.04244275681616652,-0.004441651535177436,-0.015177016857998422,-0.07022461232554801,-0.015435183498780003,-0.08521068599971296
0.1931897,0.016431720204185176,0.07399818551483159,-0.04377432961354172,-0.0040765315485098135,-0.0274798485259637,-0.0032379783244552264,-0.02134530239857659,-0.0603446673446768
0.1936552,0.008342514343680128,0.08720960914553107,-0.04277977706254667,-0.006495619492745408,-0.036522067340715864,0.10474432551135876,-0.022085127387509385,-0.04126089732792699
0.1941207,0.0005476142179003696,0.06948644703274072,-0.04086972351637036,-0.006723395635412044,-0.04236960740082305,0.2277272967740002,-0.022357287110452484,0.0006871383035648125
0.1945862,0.0011749,0.04128807271603709,-0.043801189118797365,-0.007693562090840848,-0.040832460812902156,0.23536733107527177,-0.02165760675698913,0.05594443950280695
0.1950517,-2.603303457541714e-05,0.0004698451079395375,-0.04588863215335001,-0.009681479744416653,-0.0331474758683201,0.10217991422034466,-0.026729708357816687,0.06333697868759378
0.1955172,0.004800557816353284,-0.01556664189093656,-0.044971988389125195,-0.013331173395449395,-0.028544417443656912,-0.06526567765638085,-0.021834441598226402,-0.010218672169919361
0.1959828,0.008253340860725348,0.021586810500263287,-0.04710820906698253,-0.014757516148323628,-0.019501340502405158,-0.18947087677033528,-0.008911383493356182,-0.08699480963903866
0.1964483,0.006493197996796286,0.06418973558447098,-0.0498512,-0.016361113840286882,-0.007746316958278718,-0.18517045859659426,0.0023981292395696793,-0.11151389599359257
0.1969138,0.0024472800985625024,0.06662237003211312,-0.04926252149943488,-0.01654920794574953,-0.0013963623477148213,-0.11792967905315754,-0.0007506497722439822,-0.09820070071686328
0.1973793,-0.0016648704045634408,0.03334262944748302,-0.04540356220328379,-0.018540329496800866,-0.0017198147775214162,-0.06400046872128358,-0.007207160766593162,-0.06942010320968206
0.1978448,-0.0015809539703935671,0.000334623300976973,-0.044130212327358365,-0.01892277456389103,-0.004546968881733666,-0.0357519,-0.0041479653347082975,-0.024437610524768873
0.1983103,0.0007088016093988522,-0.01913304331709726,-0.04283759586141965,-0.02018932236374728,-0.009681552774488828,0.008935258292301594,0.020916126272161197,0.0028518231528642628
0.1987759,-0.004241970338709322,-0.0386479061094918,-0.04198663111005109,-0.023057534406227473,-0.011538626447082551,0.07182484686440442,0.05485512025785964,-0.021299510854428595
0.1992414,-0.015354089682337833,-0.05778786212890955,-0.039196869171696375,-0.024322105605146117,-0.019290564249016436,0.11951201653256611,0.06669589787989312,-0.06674347771687107
0.1997069,-0.023057588697510147,-0.06493173989835666,-0.03738540508155717,-0.02462837953864532,-0.029902240291550614,0.11653623381254996,0.053931945746198556,-0.10483679808032856
0.2001724,-0.023836095050278207,-0.05346648696287102,-0.03892529268644635,-0.02455613368484496,-0.03552803940842029,0.05367304177225215,0.03642056319382166,-0.13457767099715512
0.2006379,-0.01831584463754476,-0.0392111158661086,-0.039407868267782795,-0.025032924300427698,-0.031240989553265496,-0.005036244915720734,0.026741038099956944,-0.1555445902776191
0.2011034,-0.010146512240013684,-0.03728798479483253,-0.03631285154580998,-0.027980349426268168,-0.03465325027188014,-0.003504844226130155,0.01818950618323993,-0.16519343943226247
0.201569,-0.0021189559674645235,-0.04153317927917772,-0.034312588979519665,-0.030124084795591127,-0.046465448907399384,0.04236682601372235,0.00990972973022884,-0.1614170268664387
0.2020345,0.006681583944957577,-0.043581493849906006,-0.03234593454939986,-0.03140847297108197,-0.05782856494356076,0.10552388029675801,-0.0013027644365213712,-0.13591351061756654
0.2025,0.01837197302747254,-0.04027086424134143,-0.030934363179196664,-0.03092455470013262,-0.06722588735187572,0.16174249781428574,-0.015926077196532776,-0.08375831229778322
0.2029655,0.0247945177626471,-0.0479830099382996,-0.029130637977392505,-0.028501257655274396,-0.07350301291051045,0.1744319444586777,-0.015559415648694999,-0.029633423473042497
0.203431,0.03168812303172952,-0.07299262266979202,-0.025172812771073833,-0.023739275035738597,-0.07143341172175852,0.1072330121201932,-0.0036155515192271975,0.05517793478998522
0.2038966,0.03624472021840996,-0.10403575572113338,-0.02743031388627461,-0.0283960492129631,-0.08012319490522885,-0.02376683611274923,0.013943318981045769,0.13090488502167558
0.2043621,0.046502639331406984,-0.11550454124361931,-0.029633038569893043,-0.02926525306220752,-0.08136425208557264,-0.11987985935225859,0.013175399238486062,0.08295805454417798
0.2048276,0.055756461401698265,-0.12016918116738362,-0.032020179954563015,-0.02918469751756257,-0.08270994964282845,-0.12622342402044665,0.0025997427394705676,-0.03251676935171759
0.2052931,0.0715161296963988,-0.11766774987761572,-0.03544619364163808,-0.02974527968776966,-0.08780887633795598,-0.11507373930807754,-0.010095212506471857,-0.08169310265002455
0.2057586,0.07915422324919225,-0.10420072888808389,-0.03658747277007783,-0.029612369453754377,-0.08050444755178665,-0.14319039273467107,-0.01672159897832228,-0.04028031689956008
0.2062241,0.08693291805423092,-0.07187512487772511,-0.037419759885543,-0.031020179656628986,-0.07038678423490917,-0.16074981721776643,-0.019563919198800968,0.036208941924453904
0.2066897,0.08512924257340555,-0.025652467733818626,-0.03782727475936828,-0.03146158964566715,-0.05659203891674842,-0.1037886691044381,-0.017220919665920178,0.11648149642356151
0.2071552,0.08619502845427787,0.030363223866689142,-0.04032803275347611,-0.0330663,-0.05561116376738053,-0.03333122178438166,0.0015638273458325027,0.1619568120775398
0.2076207,0.0836688449278106,0.062203868700641214,-0.042173283784188983,-0.03292987015573717,-0.06503847230248894,-0.017103562629209,0.022189353381544014,0.15779712487460243
0.2080862,0.072909738286069,0.07662810933614628,-0.04308105094932447,-0.029581888295016113,-0.07444157357601329,-0.0553881261276841,0.025703649991052888,0.12896237514367775
0.2085517,0.059391143824431454,0.0864328363158093,-0.04248682507176914,-0.02646215818510429,-0.0753329123923463,-0.10678848752523527,0.015304785639327169,0.09761709286087279
0.2090172,0.03988119117820379,0.06675967359650681,-0.04180955494553535,-0.02438326483660605,-0.07733333516339395,-0.13025778903965482,0.001975834053162477,0.04794396148497316
0.2094828,0.019014337977886903,0.0112459,-0.041681039228730704,-0.023070382704914866,-0.08396569197787933,-0.09747234429300314,-0.0035171282833668426,-0.000294698280526346
0.2099483,-0.007976117006059432,-0.034667494699449214,-0.042455830547474774,-0.023869841584068772,-0.09321671671515135,-0.052053469278328254,-0.0007385084742867849,-0.011866952737373877
0.2104138,-0.02178749969834785,-0.05417015497980214,-0.04212501149061819,-0.025035442546909047,-0.09523795062196354,-0.03662305683841007,0.0025254835368623157,-0.010500818950991787
0.2108793,-0.029626664676491884,-0.07119855674124612,-0.04225529774675347,-0.026771782164787043,-0.09749590897599916,-0.04853082597311398,0.0025116272439997924,-0.02690534635009857
0.2113448,-0.034095618590119586,-0.09284422986908632,-0.04216686611074964,-0.02747570539511882,-0.09808839615240918,-0.05345672912149739,-0.00011320186368387632,-0.09409728473480569
0.2118103,-0.038638655596928285,-0.1048994694032086,-0.03844177864678508,-0.026356583268307296,-0.09815462556568418,-0.02670423176674354,-0.0017327982645005723,-0.17482284744558885
0.2122759,-0.045754784455789,-0.07886457243865733,-0.03541900165078642,-0.02335461399545166,-0.10653427035831026,0.030155391367520788,-0.0029782368809550914,-0.20600663294326257
0.2127414,-0.04931138194981872,-0.05200651477630372,-0.033456761120358045,-0.02151505003080334,-0.11217563881803529,0.07038117611078944,-0.0037140770798657343,-0.1964407834226808
0.2132069,-0.049631401245501444,-0.030551554252415444,-0.029210222750775425,-0.022255657502526217,-0.11042844962044605,0.13340743375228306,-0.00797359287702773,-0.14251628161813865
0.2136724,-0.03719604932019756,-0.03448751065086913,-0.02530555036362266,-0.02482672122725788,-0.10108094221281634,0.15447728881721565,-0.013121766909081773,-0.05054815948552078
0.2141379,-0.021083173800932907,-0.028741755953127123,-0.021558966255268923,-0.0263523,-0.10242665357320321,0.14847763755847698,-0.018178374089024254,0.08701836149542111
0.2146034,-0.0015022759786632574,-0.004613530400261372,-0.019417652788523025,-0.026197783527694786,-0.12074358944365123,0.08539768585719125,-0.02345428996131711,0.14928212171044086
0.215069,0.005022293042374305,0.02755833161586559,-0.017884475941050918,-0.024800306664884846,-0.14695826725459837,-0.008864487276871148,-0.028491025216103357,0.11274145359066047
0.2155345,0.0017180406854457385,0.07021679932416819,-0.016752838393496488,-0.01998606292143609,-0.1594374590133694,-0.07185642821195178,-0.02163624136127755,0.055452124340616124
0.216,0.0028507716409639826,0.09492627906210889,-0.019366004703556816,-0.01725547742356461,-0.14820525322268624,-0.08471715765942073,-0.009093078242836752,0.040632616234334284
0.2164655,-0.008160658745084318,0.0922202458387952,-0.014288513751638561,-0.01329207062745784,-0.14582275812671397,-0.13152903540598748,0.010018558957909417,0.07365916833849356
0.216931,-0.012612792133781775,0.05675129107771844,-0.013682107715495764,-0.011797369288739408,-0.13589284780711022,-0.18621817488130477,0.016382268987294484,0.1063477180011905
0.2173966,-0.014198532081929907,-0.0008201435170705716,-0.013786489306023365,-0.010933089306023365,-0.1234359523588208,-0.18287552610559485,0.0036430532973733597,0.12423132627810467
0.2178621,-0.00915733930564962,-0.041032994928076355,-0.015160478403899797,-0.012433243449058396,-0.10511531293305357,-0.14575733651644332,-0.00882390262037664,0.08997048964509159
0.2183276,0.00037478043995064564,-0.06477816216745147,-0.01746384905377075,-0.018633953607680886,-0.07566104680524499,-0.1169909,-0.007614188586795341,0.034385778518531154
0.2187931,0.013443204098092595,-0.0886899096892543,-0.0194434732920661,-0.017433209742317456,-0.05058364291054485,0.027908726495681272,-0.017985488340108186,-0.017472059060092658
0.2192586,0.03741219471075628,-0.11459844403422988,-0.01970834724820037,-0.020930038959341694,-0.028386981628284545,0.13076538005815827,-0.04745924295973427,-0.05125552552187686
0.2197241,0.053515431411573486,-0.13546390694667843,-0.022038463563754725,-0.022645368196529733,-0.021707650635127293,0.034976428832846636,-0.06061654298854285,-0.08665666745592199
0.2201897,0.07159675133259964,-0.13899395122936867,-0.02367829130299116,-0.023369543337001766,-0.031240526607181494,-0.11066873650055027,-0.033639668726617326,-0.10641253906251857
0.2206552,0.0899569012616847,-0.11764899013041316,-0.025920764617449483,-0.020193193691576513,-0.021591899020646396,-0.10814459905373648,0.013337300124620506,-0.08419658788937487
0.2211207,0.10184701961132236,-0.07018171840184692,-0.025616236817438628,-0.017404893728610465,0.004815869453950903,0.031003874529609784,0.04662407491444187,-0.026423431427036827
0.2215862,0.09441666053162048,-0.007071680066018086,-0.030672339867963826,-0.014895486667245966,0.03799814659948998,0.11268828686703812,0.04997006804134875,0.042159992290479585
0.2220517,0.08828413541941495,0.04464287088962985,-0.03249894471893376,-0.015931115502940154,0.04962632243767859,0.09027913415680128,0.04290189968715318,0.056000646039550225
0.2225172,0.08078978696253337,0.09824374937646431,-0.03291064523568602,-0.01734745253262285,0.044171028057441095,0.02374807896023626,0.04307076780178061,-0.003724145111094368
0.2229828,0.06836901509168168,0.10974277508172954,-0.033311787740943434,-0.017047766984011503,0.03934351942821852,-0.01490631887634132,0.04575348854393989,-0.14488907049407346
0.2234483,0.06384637765491866,0.09154580073542765,-0.034762116918125786,-0.016877015768490638,0.052049534849818765,-0.04180275985929362,0.03895733484981876,-0.2949523781587004
0.2239138,0.054718296003356474,0.048132617317106864,-0.042125145499164754,-0.0176242,0.06064242242743306,-0.06986307557989363,0.02587886587889895,-0.37387309595962787
0.2243793,0.04735605890972949,0.024878082448481227,-0.03690994662474695,-0.017867523312373474,0.06315012067403691,-0.06948268823062413,0.013724337184378158,-0.35774559012697577
0.2248448,0.0332565721278824,-0.027103851963454204,-0.03815675495897467,-0.01799592964399531,0.06079035406386142,-0.03270804591778979,0.007747621388070953,-0.23302875106834095
0.2253103,0.024911462031674398,-0.07008661266754636,-0.039323827013594576,-0.018750775953807957,0.0626311763777226,-0.002132660336015807,0.015598632490960088,-0.05541977006968455
0.2257759,0.02038376027973149,-0.11107211917732267,-0.03909561370630865,-0.017599272407593475,0.060955868874604566,0.0019983293341252805,0.016344537765726266,0.02016859317987994
0.2262414,0.02285784017424379,-0.12985028706236124,-0.03898775133760189,-0.013758960236570753,0.05861652065375385,0.01082030828274705,0.015190271991355739,0.007469579165633809
0.2267069,0.03405759026027371,-0.11799759711305584,-0.03723618435817894,-0.009809944614021045,0.055994860255842105,0.02882217993561136,0.015076084933680968,-0.027995690003860787
0.2271724,0.04423461475967575,-0.07332615387912789,-0.03426895400759901,-0.0091690515690649,0.054676481011398506,0.021641288660960947,0.012212441115332782,-0.07451572765194198
0.2276379,0.05052991168983744,-0.027190807626311077,-0.03321851320400934,-0.0102388,0.05236071560493379,-0.009280927129491585,0.012283210175665549,-0.08948210491167695
0.2281034,0.05628716344917539,-0.002841166324695986,-0.03268108755315162,-0.010046193776575807,0.057339693223046766,-0.05010827412756126,0.02017005127909153,-0.07201546534595402
0.228569,0.06107281260221424,0.0008389143039466063,-0.03146779772906628,-0.009279698637439767,0.06323091090048187,-0.08562536369528717,0.026008312148027495,-0.06567719148546645
0.2290345,0.06898111386699093,0.015454080141463305,-0.030315325403104252,-0.008667188910864883,0.06889414435654047,-0.07476841686276381,0.026107150130169163,-0.08388003256008882
0.2295,0.0733068102330103,0.024865203799857762,-0.030899077269865186,-0.008132469693153583,0.0632519204760111,-0.0028782954387771738,0.02134496212643247,-0.05080375002149245
0.2299655,0.06451428413989103,0.021454939665441305,-0.03162065450793504,-0.007122370517358168,0.052751110805503716,0.08891248525867908,0.00997937114006241,-0.01970964345194435
0.230431,0.04320348035985052,-0.0005795174504850602,-0.032845963468905344,-0.004774430743336774,0.04697348568954281,0.13672769173771246,0.005764532320482139,-0.07970085778710581
0.2308966,0.027581883237971356,-0.027657004453937133,-0.030145038178353362,-0.004766537161256861,0.03261225358194112,0.10194290153669644,-0.0006797356245604228,-0.17929043339759185
0.2313621,0.007949188375942546,-0.03969555796182847,-0.03235579713360034,-0.0041962,0.020681334713713567,0.03060552536203141,-0.010432737738572027,-0.20991416453380327
0.2318276,0.004208573740928637,-0.038544599612593426,-0.03638415135592301,-0.0041962,0.0120491470944507,-0.007375928736101843,-0.017626227421291083,-0.17711202300722775
0.2322931,0.0026661899491340194,-0.04321474020346392,-0.043924771363428615,-0.00479335502543299,0.002288574618505148,-0.04196208343898095,-0.020982797614448455,-0.1471878127972827
0.2327586,0.0036176535791196786,-0.05828768805311255,-0.04867221789902911,-0.007614879811665512,-0.008491879183883886,-0.1050298212220766,-0.019980956404137,-0.12496811915459237
0.2332241,0.015839864669976625,-0.06892487360564535,-0.05159676128210375,-0.00936799694773138,-0.01619495169393644,-0.1787166707745139,-0.016025024647083202,-0.03237353750865627
0.2336897,0.034219311339817274,-0.04547732350549937,-0.04921379054400317,-0.011192375375369006,-0.02134110983834124,-0.20664675773276062,-0.013542275375369006,0.01753420630460126
0.2341552,0.04312071789485477,0.0003045179743245771,-0.05344305164054408,-0.016443621318499243,-0.03000750678420245,-0.14875126070717617,-0.014861636028118966,-0.06458031009683386
0.2346207,0.02740051438857076,0.0445144233734567,-0.051269247489404104,-0.017706226257157853,-0.03613530288370115,-0.050317372651601466,-0.0159457,-0.1332203147635359
0.2350862,-0.0007570001555047422,0.06668266843358446,-0.046558588526887316,-0.016858239797843833,-0.03781265965788957,0.05806622828585496,-0.012771234391735069,-0.08884898501306962
0.2355517,-0.03555522712374595,0.07688776140145455,-0.04190499517945822,-0.01154116272406182,-0.03371397269974652,0.08567651629534127,-0.01358089384544722,0.018625645564596838
0.2360172,-0.07137390968599923,0.07470699268540362,-0.03666323674771847,-0.008332161421890968,-0.030293212978292454,0.027199746065229805,-0.014657166721852842,0.1234329352810621
0.2364828,-0.10674231816923821,0.06166410677230487,-0.034553533657230406,-0.005419950485845616,-0.018826494772612074,-0.03475052765232283,-0.01391946027651227,0.15318898672103393
0.2369483,-0.13119167700434517,0.03573134624392501,-0.03310033137492621,-0.003567339218657762,-0.002581868655382967,-0.0695460834454155,-0.020802535281637398,0.1470893014026612
0.2374138,-0.1405915939494355,-0.011817691220489751,-0.030291634084605477,-0.0007931802703399606,0.027625816952906335,-0.052477755606059745,-0.025929422624291484,0.12193623391891978
0.2378793,-0.14154752332508985,-0.04835823791413757,-0.03231490421697802,0.002274771610820972,0.06418504804231595,0.00416707380949922,-0.01196509477363402,0.1008815954809359
0.2383448,-0.13773037417903677,-0.0887425739485084,-0.02964528055254585,0.010892887121651242,0.08456542237224726,0.01975023866577953,0.013782664421077447,0.06711668744997777
0.2388103,-0.12433441326633089,-0.11912172142936847,-0.02662518170379801,0.01577816486962522,0.08198437562102055,-0.06086421020658661,0.028754373179507194,-0.003885962752654
0.2392759,-0.1121518180973618,-0.09181192146665437,-0.023115551272842406,0.021280246293064152,0.07340723401100557,-0.17325937267893252,0.03712688237619637,-0.025026954280168174
0.2397414,-0.10554953139925415,-0.038037924557910184,-0.020034532020216354,0.01766856538764411,0.0607380533680285,-0.1935424378194502,0.03114772331598575,0.017351990050841256
0.2402069,-0.09702722151316316,-0.0036984175247058767,-0.01925161308368869,0.014366246019190364,0.05177403393109489,-0.08945140942506767,0.02552188685034406,0.05902878527025643
0.2406724,-0.0745113669178007,0.008445992037564283,-0.01882647539099092,0.010045370603095948,0.05312259106544584,0.02284422026694026,0.018255741044635013,0.06028560607535828
0.2411379,-0.05011718605359547,0.004917246167029134,-0.01595752316920394,0.01125772316920394,0.049141977002174805,0.022944484482288818,0.017859423526410404,0.0665013529471792
0.2416034,-0.015148933153881427,0.0097042628610054,-0.013227130269669655,0.007833950449449425,0.039577494404604355,-0.030046523212829482,0.01534023946066069,0.11527291819446685
0.242069,0.00938585170009681,0.021136014429654855,-0.01272602797404481,0.004188215979054378,0.021502607586840933,-0.05708627303391107,0.015810291103808615,0.13277295928693775
0.2425345,0.02580267373748452,0.027909643709111864,-0.01436050731284112,0.002987734031614781,0.0014434780105382604,-0.08581879420705257,0.01602880393548803,0.11473544786347313
0.243,0.03916211748683276,0.036615791425936746,-0.014583603336312395,0.005788099559292882,-0.006174735624240351,-0.12011689850363978,0.01945385852306282,0.08583327311917602
0.2434655,0.05051374657716967,0.03768899797707323,-0.013316542168180874,0.00397929035453223,0.0025870558104960795,-0.12544980280141083,0.018897224895360935,0.04020319416500087
0.243931,0.06349192331264752,0.04064364762784761,-0.010625647902261634,-0.00168509784349783,0.018399470509194705,-0.0734980116675358,0.018277322018746222,-0.07933578245114453
0.2443966,0.07679587838807857,0.03204186147495254,-0.012938375194368563,-0.006038872645148934,0.025219743504527666,-0.003393989852124384,0.018938943434571517,-0.2304169692975018
0.2448621,0.08728187939496927,0.012318807410538845,-0.007524160477026265,-0.006013617018754825,0.0213169,0.05642252534067804,0.0025158260646082355,-0.2665486370355364
0.2453276,0.10531596677509726,-0.013720305565416327,-0.007012810122375609,-0.008231152457416404,0.011136956506366646,0.09760718076748634,-0.008643832391601948,-0.19054150687792493
0.2457931,0.10919123918070361,-0.04604618238939654,-0.013073538006553125,-0.008221267520082377,0.011447187916032046,0.08812938722298372,-0.021364164041687842,-0.08535724277164769
0.2462586,0.1162133330568075,-0.0842330652840375,-0.012428868436432004,-0.008963734384131502,0.020829507009089632,0.06980496509780268,-0.022155107838667136,0.019853693156825867
0.2467241,0.118587307876119,-0.112858413362691,-0.01273236121679175,-0.008464327551644169,0.0340734,0.0794791745499381,-0.014444597898417738,0.14187655089203643
0.2471897,0.1179363092372522,-0.12643138407648563,-0.014092538453434765,-0.008820686144121717,0.03574390592045812,0.10468388127022761,0.004331598442899959,0.19238252737663242
0.2476552,0.1171513096665678,-0.12490319097557781,-0.01514894840011865,-0.009847864533491534,0.032022508320479544,0.10544491805432704,0.01346561165480163,0.17723907285945373
0.2481207,0.11608832486249203,-0.10966119641817176,-0.016316919643067064,-0.011690497738837425,0.017296454320843188,0.09305721504720793,0.00694819080828175,0.12366063460424215
0.2485862,0.11486409630332857,-0.07748688151664283,-0.021063983658697185,-0.014090834047351454,-0.006694761994915673,0.09301175687415789,0.0013214509049013666,0.048187504212918536
0.2490517,0.11675454558659479,-0.0283389704734092,-0.030417954594973047,-0.01592748319735366,-0.026887101668029767,0.0804130373384071,-0.001013054776540887,-0.00460020009078392
0.2495172,0.11940682487759063,0.012056375653664317,-0.03828894402542106,-0.014501187644439723,-0.029789156057813983,0.04483220621939766,-0.007946671767891812,-0.03736727569528184
0.2499828,0.1243939918531232,0.03370595824719598,-0.043397688456504574,-0.012439903430263913,-0.029933402572697936,0.002335346241272275,-0.013858009433225765,-0.04916211368741037
0.2504483,0.1307811270135403,0.058904057659464465,-0.04196503443242777,-0.011709500824320832,-0.028872734432427778,-0.028962761291848365,-0.01778399670271667,-0.06328962041897362
0.2509138,0.1364927357078598,0.07548024763627148,-0.03616994001763875,-0.012292218475588963,-0.028859073902355852,-0.0444657235267878,-0.020196830488220744,-0.06552541400079226
0.2513793,0.14192687658028003,0.06409774411424012,-0.03108513145611823,-0.015745446174255672,-0.03077764784936163,-0.0314665739354246,-0.023206486310468875,-0.007104155522337851
0.2518448,0.13628384980976585,0.01853769864569408,-0.026831100451435306,-0.014227331478559048,-0.03333256115647782,0.01022157513060059,-0.024785477458776236,0.07758377881308216
0.2523103,0.14036543055252046,-0.02345320400900213,-0.019697093637532193,-0.01769203788044338,-0.033009768432963854,0.04921720834243858,-0.02827604949274216,0.0742197211543535
0.2527759,0.13581257629175938,-0.03620549541046578,-0.012660086507496482,-0.019474311900636795,-0.031174485470827833,0.06095595013804958,-0.024466652952650894,0.0024924110693395644
0.2532414,0.13087055171051726,-0.010433587869552357,-0.004296702355651447,-0.023948524260895287,-0.032680867278268584,0.053731436431303785,-0.018502816921672254,-0.01780966492261714
0.2537069,0.13179000680813782,0.05349058390565074,0.009418568426165728,-0.02449062576201559,-0.037004914553489754,0.047063661155030294,-0.01731923931918622,0.016270408278673442
0.2541724,0.12998553797212486,0.10221827291238109,0.010212135410741497,-0.02345339952951473,-0.03862542385991002,0.02653765766335544,-0.018246764105656475,0.0004212677119291273
0.2546379,0.125678305943405,0.15377488508333292,0.01433397567386073,-0.02188073026954429,-0.03820936973045571,0.024405786489208905,-0.025829715189298413,-0.03950774042332075
0.2551034,0.121793339177258,0.19040440641080644,0.011558999412327142,-0.020770739764930858,-0.03931936023506915,0.028568250881509286,-0.0342933514557834,-0.008983084208836206
0.255569,0.11207421447865709,0.2376248860411531,0.005282512919226543,-0.023126899306919753,-0.04365394414683194,0.014498726261021324,-0.034422503465401245,0.09237712423855521
0.2560345,0.10320360947142455,0.24079464604808723,-0.0008994742406057273,-0.024082024913527653,-0.044935176472551824,-0.017596295999276746,-0.027817744319545704,0.15677977196842402
0.2565,0.09878150492538293,0.20970635600942877,-0.005840019090625795,-0.02207053833933601,-0.04193157751000545,-0.03971644112779881,-0.024290542570038196,0.15479894471642353
0.2569655,0.08455257506666607,0.15399256340549408,-0.01954283824357322,-0.019704695012986318,-0.03798366142263214,-0.052407817629663685,-0.012966582265128578,0.10144116219542915
0.257431,0.08348744059982932,0.08609213838823292,-0.026957359400170685,-0.01867451852858362,-0.038201310899743976,-0.04342267173080728,0.002282040156140753,0.042766941930895
0.2578966,0.08031547697577876,0.047532892462529765,-0.03318767989468276,-0.019507484330426598,-0.03174281662985113,-0.03293629506508189,0.010303798540547996,-0.0015529761983234295
0.2583621,0.07501914093806854,0.03956381535351539,-0.029309635872818568,-0.015918068975289607,-0.028394131024710396,-0.02081532467482446,0.01959487878810995,-0.07410743183390127
0.2588276,0.07209430917684587,0.04832143651853859,-0.0260166,-0.012781290599520418,-0.03159935576676517,-0.002181403036116117,0.03394985273064905,-0.10389128199028935
0.2592931,0.07044916495007379,0.03396367181492409,-0.025492613373424046,-0.009524812369066651,-0.03728877019152076,0.014905566636110546,0.05682327192339169,-0.06857076195107607
0.2597586,0.06685140048202054,-0.024964221683684774,-0.03598140881357214,-0.005998116028718816,-0.03451171628188596,0.03223895732957337,0.07894968171415756,-0.02106705303024849
0.2602241,0.06754330324667808,-0.12565968742267125,-0.04626190059613906,-0.007022843585848724,-0.0157172394695667,0.06542112669879169,0.0865886668653797,-0.0009600307784097656
0.2606897,0.060712130055156174,-0.2241745984425079,-0.0777634082844074,-0.007459380600869173,-0.007321163114658216,0.09969774116987959,0.07972620792897965,0.0157184733119855
0.2611552,0.05654850432212333,-0.2628180559832003,-0.09077466118252758,-0.009280966859071045,-0.008101842939601877,0.0807012762805247,0.05695649597786748,0.026647913343589246
0.2616207,0.05190086569423182,-0.2818732605760831,-0.09853969424602509,-0.011144395031451171,-0.01718577200291451,0.057816259223312266,0.02732029124128362,0.05187454669289953
0.2620862,0.04475726944224773,-0.29673566617724867,-0.09526537196663404,-0.012544920614381937,-0.024236029295559115,0.08787295768335907,0.010070860761070555,0.03470813652725556
0.2625517,0.03846764706922775,-0.28933284101275725,-0.06643505262935613,-0.012607797058173265,-0.027224221955183037,0.12348528667537119,0.018112676465386127,-0.12218934792925817
0.2630172,0.03326906959552129,-0.2741749171428006,-0.02814539480189618,-0.013026052114169956,-0.030634612969015575,0.11540290141082457,0.019879181887435458,-0.26751441073475835
0.2634828,0.03037087551550593,-0.2604268952360837,0.005528329569531974,-0.015202099678878388,-0.03206680077753728,0.013774466060876223,0.0022822960136209855,-0.33954379844492544
0.2639483,0.027648408196573708,-0.2395186194187018,0.025093997959958002,-0.0162058102040042,-0.02723266431859681,-0.11103516728272238,-0.021022350971103734,-0.3377980684601096
0.2644138,0.022924094028319346,-0.21021922173973026,0.018147849243866386,-0.017974133623173277,-0.014158355155628743,-0.14112101853686632,-0.03470004005957299,-0.2502399032627822
0.2648793,0.01328466277444636,-0.18773722687620953,0.021723336069874734,-0.012395420829083705,-0.004963569295013964,-0.047511912888190816,-0.03829201294404182,-0.15435023227825573
0.2653448,0.002628048106550116,-0.1503671020503308,0.010205741061663528,-0.014678017975892976,0.004320205920348839,0.10191647334217614,-0.04748081327930192,-0.12502395852504997
0.2658103,-0.000774184494657573,-0.10543940239225023,-0.0014742110627269493,-0.01669535547743875,-2.1210486806431342e-05,0.17698356429338283,-0.050918029681707506,-0.14367971739785265
0.2662759,-0.008284363761318957,-0.07633554174320863,-0.007684680274901703,-0.018313529128395685,-0.005979285692171722,0.13448118074820647,-0.04645834174320863,-0.17274874446170224
0.2667414,-0.011871238285592185,-0.07415031551029129,-0.015931633225043856,-0.019261323102058258,-0.011935602203516794,0.056934504816631294,-0.044852392081475664,-0.19716427746861614
0.2672069,-0.011277212666080776,-0.0687374916453614,-0.024081149719305764,-0.01719746712409431,-0.009117796384069173,0.020696304239695797,-0.042997058457573234,-0.22488729809846986
0.2676724,-0.01510887342284714,-0.04559928663546647,-0.028882167114235698,-0.017200939865729292,-0.014731816778558924,-0.04608261857087845,-0.04396926741193392,-0.2461702016341207
0.2681379,-0.015941415695381045,0.0107204522742275,-0.03901102748193645,-0.015476922377401437,-0.018918920243836047,-0.19855788968390978,-0.014565981889729348,-0.2324939168878062
0.2686034,-0.020272204501588266,0.05796819778316721,-0.056364916366768165,-0.015180404648630652,-0.022593091958197472,-0.3084830969909543,0.02542193293757975,-0.18131979298749418
0.269069,-0.02142479018567357,0.11070421028501913,-0.07783983122492061,-0.015963346295814165,-0.022377942464553224,-0.25850152328221343,0.03241465345003562,-0.16413366429542536
0.2695345,-0.022187498203935126,0.1852348167725583,-0.0896539300629712,-0.019667584134016935,-0.019697016382805653,-0.0812631135445528,-0.004083917679133518,-0.18981504979230948
0.27,-0.022946184274904163,0.23917708992432915,-0.10963015054712863,-0.013612240471457773,-0.024456649323949527,0.11895236895214573,-0.029520491904216815,-0.1789424328988201
0.2704655,-0.029397517125441704,0.224761295896613,-0.0972570892335473,-0.004563727267661581,-0.02509818152235229,0.20942397705497873,-0.038931822260878574,-0.10515074794100142
0.270931,-0.02229103843179652,0.18123133053911647,-0.09636186450737187,-0.0109102,-0.03717686615854244,0.1907248049292714,-0.05630226829266421,0.011879798119473964
0.2713966,-0.02269856197650682,0.1271244688110985,-0.07130416037963835,-0.011027867703938158,-0.03856400604680503,0.11439330206528144,-0.04822607247324843,0.07223983500333543
0.2718621,-0.02276811961764178,0.09961750873588603,-0.04106811582875178,-0.01030682791928656,-0.03485003124859881,0.04892053457342726,-0.031061712494955724,0.14925481498560578
0.2723276,-0.01895485027618616,0.07401415377804028,-0.01561744554468969,-0.009470566472088809,-0.029587168764886623,-0.02757837667549139,-0.02159565662321042,0.2575840998433239
0.2727931,-0.020429587876643097,0.03692615238926947,0.006075285176815276,-0.006344088815598018,-0.037239563233843934,-0.15472143899488808,-0.028397845729584002,0.3296071125459529
0.2732586,-0.019644097102563297,0.02915082098042791,0.010777543365079573,-0.013043545594281992,-0.034568666404213265,-0.3212171765658701,-0.04991188397571458,0.3154943379488179
0.2737241,-0.01961864916927359,0.02164284988759651,-0.0005528158962053038,-0.009977164144354908,-0.034103026246089616,-0.3418091434226902,-0.07603544939408056,0.28447518554044054
0.2741897,-0.019788447328245126,0.015000369655722545,-0.018101018262551356,-0.0075566025402509,-0.0386116770756046,-0.2179764843455308,-0.11099000869846574,0.27564197623828907
0.2746552,-0.020334645069179178,0.025409368437463265,-0.03505184606933204,-0.005687487282912888,-0.04160962721253546,-0.052391793005150775,-0.14380179712186061,0.20232422523492366
0.2751207,-0.01977698047808557,0.045525635116533535,-0.018337093916353436,-0.005571278321734333,-0.03306852817030825,0.07363838274448985,-0.14176295064688627,0.03583861928332865
0.2755862,-0.019676298729361184,0.03094592139687999,0.0004375591957771277,-0.003004771488836741,-0.02061953342671153,0.1315017242182922,-0.08641687394242194,-0.18811174499249497
0.2760517,-0.01949134490839608,-0.006546156604234309,0.021922176471187875,-0.006091569685819598,-0.01121173608638039,0.04588817995702402,-0.039600554929884076,-0.31160321015862363
0.2765172,-0.024111546383061032,-0.014151952476508287,0.030603755320390794,0.0006473314426956212,0.010866228827191947,-0.08765745242337655,-0.006472108549555709,-0.26749437454448816
0.2769828,-0.019610667705338553,-0.01977158463167319,0.029540401336787914,-0.002913065750328579,0.02962821345875452,-0.17417137034891364,-0.006161661445854178,-0.15942082892997284
0.2774483,-0.019140306336765178,0.013021759537433404,0.006847711807684576,-0.005177447794320097,0.03267606593876986,-0.17220062454578622,0.0019101369170525732,-0.0633720313815619
0.2779138,-0.020516202610255108,0.06325593194904694,-0.02264779124459446,-0.0033274281114861514,0.02399095035268735,-0.14847743112013947,0.01924400568283032,-0.008975274686223583
0.2783793,-0.02565061877227409,0.1042162802588595,-0.052802363487629025,-0.00047607170651560167,0.027067738815216517,-0.11854962366401432,0.019275271706515603,0.024953134193622818
0.2788448,-0.02409345536563348,0.14344043335388257,-0.07842125677279055,0.00020537020644766085,0.02475348188483561,-0.03609087398518225,0.004573557843691364,0.03901521754864795
0.2793103,-0.029906001862443944,0.15985011684743558,-0.08203007300825528,0.0004958646992606146,0.018317962576189277,0.035739838508424174,0.002614538769051565,0.05436506724991556
0.2797759,-0.027781023596917344,0.15026719517842888,-0.0812244448725851,-0.00042399396684823245,0.007533321836690074,0.032913080025448856,0.010366850293468084,0.10905820309963339
0.2802414,-0.021502186057075903,0.12115606455270461,-0.07138684435235725,-0.00011766575286362103,-0.0006288449524367501,-0.02840249074296593,0.00555860998116722,0.17354578569500934
0.2807069,-0.015174943726391638,0.07597113961957506,-0.05132919081259735,0.001648950512392229,-0.0012690426939284349,-0.06309730907769398,-0.008559623177280345,0.15781514977306846
0.2811724,-0.01598921924565446,0.04900572301738216,-0.04733846291988211,-0.0004105793381302947,-0.007569339671577255,-0.03303646618957071,-0.021971453297054883,0.0737131795740772
0.2816379,-0.014895007952461462,0.05296798200394981,-0.051924653631682804,0.0001289436871384597,-0.008278497750493725,0.02642587492280291,-0.02900136556831003,-0.0030370923049619298
0.2821034,-0.01916912142267391,0.0759392472200663,-0.04722334932898152,0.0009439051415967455,-0.011466101342036957,0.05556380629191414,-0.03248442468190652,-0.041679001342036955
0.282569,-0.019466144313751856,0.07590169851660795,-0.02847592568896354,-0.000992212667771546,-0.015100421968441424,0.012221469084309143,-0.036277242453490795,-0.06602405347256664
0.2830345,-0.01841651887553314,0.041575894026127165,-0.017711299891543294,-0.006174331072855348,-0.016339565758574773,-0.09458097508003412,-0.03692198765109061,-0.09129720287586286
0.2835,-0.020093985208893304,0.00027405245554124405,-0.0196255878816197,-0.006858857068229936,-0.019752663454743496,-0.16505450253860995,-0.03347434440534107,-0.09266597699255572
0.2839655,-0.01396941018647242,-0.05667482959033658,-0.019317033453490118,-0.008966008776154565,-0.01819690346229977,-0.1655931328103662,-0.03348059404302127,-0.07427917439688693
0.284431,-0.013598886923539171,-0.1300184954599347,0.004647365004703138,-0.00997699249849769,-0.016250595320089094,-0.11159055625684068,-0.038671584407927444,-0.033599111218141325
0.2848966,-0.011089029999658752,-0.1910105779508829,0.04878520031227167,-0.008681846769847226,-0.01353493976993146,-0.05886743590313074,-0.042742526621981816,0.010427117231690552
0.2853621,-0.009254435851292176,-0.2242492910771789,0.0889786253355612,-0.008849512761134408,-0.013122157022293288,-0.03842416406321542,-0.040944317300175934,0.014797426089269938
0.2858276,-0.0052685683900537015,-0.22967021056118958,0.11958737272676521,-0.0032543683900537017,-0.014116836853729862,-0.028036589291565498,-0.036378405644304196,-0.018704198365509135
0.2862931,-0.002132596959188964,-0.20369759079736602,0.13509356259888514,-0.0015860616326668626,-0.015672238469388904,0.006372220020411153,-0.027668661089407073,-0.0880935893279884
0.2867586,0.0017205672753879654,-0.16186197953144524,0.13026037193467307,0.0007820506188082005,-0.016907077771053176,0.03053051161223879,-0.021255529968689207,-0.10391640301993586
0.2872241,0.0005232003275350318,-0.10975093016324676,0.11450203365669828,-0.0013934808627439899,-0.0172885,0.04025290787258455,-0.010511679286040888,-0.06431368622448212
0.2876897,-0.0017267546528521123,-0.05021617445942185,0.09579845529708979,0.002820161827523072,-0.014676465399218883,0.013437439230304719,-0.01229020801775286,-0.04842133605682135
0.2881552,-0.003099700905670566,-0.009507963824645244,0.07644115906835378,0.002626494289007789,-0.014934317846850658,-0.065408991906559,-0.021667531459487337,-0.05751865973319762
0.2886207,-0.0074658107103058365,0.0014967460952183451,0.05881172712901707,0.0038168053551529183,-0.0152743,-0.12992360118084267,-0.02421247952306214,-0.09836425963654562
0.2890862,-0.010165780285567083,-0.00532263899839986,0.03270333120321435,0.008800104826743448,-0.016401297462023914,-0.10547036857004924,-0.018879505279949003,-0.17909323256283102
0.2895517,-0.007974842543309038,-0.011029216243235688,0.003730461597149772,0.005770389597694405,-0.012424877865535047,0.00902307197430578,-0.0024111999622756205,-0.22295845707349865
0.2900172,-0.004022571672291238,-0.002961308280718247,-0.03838587179346976,0.00576440256169277,-0.009231836237486985,0.10555138589673488,0.002557625523658953,-0.18294979865856434
0.2904828,-0.0046691458254496995,0.0023223197455789803,-0.0819690127253643,0.006026308992063588,-0.012783606392845833,0.10360294353991636,-0.01189191354753611,-0.06051382082110785
0.2909483,-0.0025770293384399716,0.009422447503315143,-0.1288361111735648,0.00019074750331514283,-0.010193189367466984,0.050831046962283355,-0.029758576716806682,0.09767209419551501
0.2914138,-0.006386129778075497,0.03382376289498703,-0.13807175821955261,-0.0008011202234740531,-0.010348449556016756,0.039892382437326304,-0.03042553577461279,0.2756196577771189
0.2918793,-0.006656104354307974,0.05965037349604979,-0.12669567125590928,-0.007030838157449513,-0.012719994462604713,0.007633407072854027,-0.017063534759891547,0.271929605311058
0.2923448,-0.004063203179324491,0.07314808052693418,-0.0916492319207301,-0.012246432986535931,-0.014026582990196238,-0.09005899858251636,-0.008629821282282131,0.07361627871771786
0.2928103,-0.004791814808431114,0.09920519895574727,-0.05517033532313379,-0.009486367768503175,-0.017144320514702677,-0.22153733945902349,-0.004095206446273271,-0.13941112247170845
0.2932759,-0.004249456433276469,0.1150395895988022,-0.01455323699492108,-0.00785569903721144,-0.017404849730110993,-0.2935284897009734,-0.02096759652806888,-0.2370178479576558
0.2937414,-0.005287345342293965,0.14526429229681886,0.015863108135752594,-0.0076739100664206285,-0.018778259006720473,-0.2392874606935493,-0.036266497208109594,-0.20490539105813194
0.2942069,-0.004026999948469563,0.16572337906748194,0.03354503485234016,-0.009496110764839031,-0.022300439608186517,-0.10211930826014205,-0.042300077568083884,-0.08430546905439423
0.2946724,-0.0028846192040232863,0.16813012451478562,0.026453954291249297,-0.010862722068850174,-0.022435287742607182,0.00024118265964900355,-0.041586524388516136,-0.004515901876039703
0.2951379,0.0027305786227455726,0.14236508512709256,-0.0012440203414491877,-0.010656798028325063,-0.021164025804973636,0.027288927120259814,-0.03481110574049673,0.0071176505716333775
0.2956034,0.009724968465286036,0.10931959539878186,-0.034407446665774076,-0.010885738399025041,-0.01909728540170562,-0.024246110333982746,-0.02259732786918307,-0.00010943087101111565
0.296069,0.0132601,0.08922519396126107,-0.04032570533061122,-0.009893302119568553,-0.01658769826859247,-0.12938370840526528,-0.01402501663176707,-0.00796057764946069
0.2965345,0.01600014819548585,0.11022680685854973,-0.020396339016773585,-0.008960181642575482,-0.010413329718225697,-0.21582401931056547,-0.011178821432736578,-0.007078687092423801
0.297,0.0207640777807697,0.16009774059391416,0.008442672757772524,-0.010198721552706371,-0.007829611109615149,-0.19951365462558843,-0.004156956214599671,0.006289374602747185
0.2974655,0.024516376630763646,0.16983989366502952,0.03657336595895615,-0.009077385689903378,-0.004331156326266613,-0.11418131003595432,-0.0037411092921194678,0.05756850763455607
0.297931,0.018888104915842134,0.16828768646077574,0.0513155597458195,-0.012013477046488075,-0.007513399390840626,0.010589654274722303,-0.005493448813641711,0.07452365209508904
0.2983966,0.014759992320989948,0.1642779929654303,0.07052521336166659,-0.01470285084497476,-0.015167149779914482,0.11017699177868424,-0.004846172632226441,0.00421762736777356
0.2988621,0.011630911061946457,0.1625448930514593,0.08124469424450838,-0.014895816273351964,-0.022811118918388187,0.12989035758439868,-0.005664116273351964,-0.04006610667322017
0.2993276,0.006485847961195809,0.12913028272706903,0.08606332596481056,-0.016842620815521677,-0.028109415236217242,0.1292321844429503,-0.0020574795053108015,0.00440794173604547
0.2997931,0.005252196607077053,0.06873624252837547,0.09209058077343664,-0.019064793214154108,-0.021916433129546754,0.1128089601299617,-0.005108931810249468,0.0649934441079983
0.3002586,0.008928439310095359,0.023271918174533328,0.09125136984729972,-0.01942490235041058,-0.01388766044565739,0.07403323581237722,-0.02246923840703506,0.047407598260207545
0.3007241,0.0054606854704098975,-0.0256809,0.08784707504917368,-0.024844505887938937,-0.009031007323236683,0.012497834210437046,-0.04122403332064452,0.00861409426701077
0.3011897,0.0007250814281436538,-0.06237160249441155,0.05458806842410858,-0.02365546789788999,-0.005444790265069761,-0.021165613004035074,-0.04856017226645283,0.01065411163259195
0.3016552,-0.0036660246043616744,-0.10441122232009312,-0.019735197721564277,-0.023914134622273955,0.0008667553481480936,-0.012217105461040836,-0.05918145762658381,0.053579206151090415
0.3021207,-0.002794703587651729,-0.13654017925724757,-0.09821258059614996,-0.021491184866042255,0.00718081692788005,0.014747836659868119,-0.05551239944406269,0.10641001513395774
0.3025862,-0.0015949737152496685,-0.15873509255129753,-0.17754431635448942,-0.01819192771693659,0.006431030430322849,0.010848714574561423,-0.020270468460334427,0.10970927228306342
0.3030517,-0.003339435241027395,-0.1820276389481499,-0.29164286105185006,-0.014583420400787672,0.0012130732623287655,-0.02278967249000025,0.031108964141164132,0.06761406584127505
0.3035172,-0.00719240143733358,-0.19435891900838176,-0.38019294895563727,-0.011219455910856931,-0.003809637788320675,-0.06406071083295915,0.05737017364908383,0.0743456637019702
0.3039828,-0.011853332330618522,-0.20965184377161467,-0.3949670907674704,-0.0071386586467972815,-0.0033606790561223183,-0.08479456724241487,0.06596600091433973,0.10048220768127787
0.3044483,-0.017036613274437225,-0.2324077397851628,-0.3497574061703498,-0.003860563843178727,0.0026014619336357406,-0.07070703256662865,0.06149602292053294,0.09854868859695687
0.3049138,-0.017997944489477415,-0.24009763520834035,-0.23357286479165967,-0.0038714328730741964,0.01248884960729032,-0.01658807947239193,0.042948445331253235,0.11229411967788389
0.3053793,-0.01978381650161163,-0.2411387852009806,-0.09515255959277656,0.0003037167845631213,0.020201678518223312,0.021864655050902928,0.049741150778116604,0.1576523705434369
0.3058448,-0.015985352169434093,-0.2101677507006745,-0.016008858007957063,0.002565391274515783,0.009447290279426788,0.030336171836179426,0.05457088007114043,0.10083908709945609
0.3063103,-0.017647516435628532,-0.17508909677979176,0.01457996027142738,-0.004517257603649797,-0.003717758238392202,0.027149847097162963,0.05861183591477785,-0.04566227767638564
0.3067759,-0.009978512814620833,-0.1421815797256274,0.0008163117735660616,-0.005021406064087689,-0.0180087133980453,0.02043398624734538,0.04123102961121981,-0.16837943938189628
0.3072414,-0.0037250358133087895,-0.11830475221230409,-0.011832724369608324,-0.008716642473953897,-0.027246762085958574,-0.008843571403474691,0.01962819373473725,-0.18515004303009228
0.3077069,0.005918179893342305,-0.0874495,-0.024342253507547408,-0.012790227500692565,-0.04146822976784738,-0.03730038100823998,-0.0024763468604314,-0.15519079562003882
0.3081724,0.01145401267039934,-0.06281335554630156,-0.05172594399937837,-0.015461230684705531,-0.05004959353261701,-0.024430494011819653,-0.008316994011819656,-0.10267581438838382
0.3086379,0.01325425730018003,-0.03809536279691833,-0.09497903194908927,-0.016673723140324052,-0.04754921248194252,0.004400531116630283,0.005100840581402434,-0.024537182920072013
0.3091034,0.013988644454606238,-0.0141772843047592,-0.14121916043959243,-0.02026104869102587,-0.0416294222598633,0.047074462767795304,0.017197971095761863,0.02943914248126912
0.309569,0.01299459241187086,0.01149916377601718,-0.22467973422349263,-0.02184799720618053,-0.037476551516919976,0.07087455714170302,0.017514873346064472,0.007553026635363481
0.3100345,0.008383877147443753,0.03411344602048438,-0.36122457052481627,-0.020021331127460178,-0.029842001658786872,0.04345020331256574,0.03282626556498209,-0.05479875398101803
0.3105,0.0013603865846563777,0.043025051471792704,-0.43155658060386537,-0.01932561385354502,-0.02500239697481514,0.007231435673464238,0.07237676778992201,-0.059925751512592426
0.3109655,-0.007330796079543124,0.052150884495380787,-0.41718948691086705,-0.017381354957384354,-0.01239036040375516,-0.015351484857955452,0.10209044939079079,0.04413421031107198
0.311431,-0.014105528627568822,0.06271166388047399,-0.31736512851647364,-0.01946751225937572,-0.02072486838906358,-0.012741220876782698,0.0961346717722034,0.1826978182633392
0.3118966,-0.017653768041757632,0.07414081004822626,-0.14284341149111526,-0.017876912957930487,-0.021354467268540678,-0.017883597752026262,0.031060199226783044,0.21833222713937123
